3001,611248
3002,611248
3004,612066
3006,611330
3008,612465
3009,612058
3011,611735
3013,612577
3015,611786
3017,612911
3019,612499
3021,612194
3023,612989
3025,612296
3027,613362
3030,612940
3032,612602
3034,613476
3036,612721
3038,613867
3040,613397
3042,613045
3044,613233
3046,614333
3049,613835
3051,613560
3053,614445
3055,613655
3057,614870
3059,614354
3062,614062
3064,614096
3066,615308
3068,614860
3070,614542
3073,615366
3075,614649
3078,615833
3080,615365
3082,615012
3084,615959
3086,616350
3088,615864
3091,615599
3093,616452
3095,615591
3097,616796
3099,616275
3101,615946
3104,616732
3106,616947
3108,616308
3110,615909
3112,616452
3115,615400
3117,616291
3120,615423
3122,614747
3124,615034
3126,613768
3128,613265
3130,612450
3133,612485
3135,611093
3137,611586
3139,610393
3141,609611
3143,609439
3146,608043
3148,607341
3150,606733
3152,606389
3154,605079
3156,605719
3159,604613
3162,604052
3164,603693
3166,602499
3168,603237
3170,601788
3172,601407
3175,600399
3177,601225
3179,600368
3181,600107
3183,599663
3185,598877
3188,599782
3190,599005
3192,598562
3194,597890
3196,598953
3198,598307
3201,598438
3204,597946
3206,597397
3208,598572
3210,598023
3212,597743
3214,597276
3217,598484
3219,598008
3221,598404
3223,597858
3225,597469
3227,598805
3230,598366
3232,598164
3234,597921
3236,599275
3238,598793
3240,599299
3243,598611
3246,598430
3248,599793
3250,599352
3252,599889
3254,599065
3256,600451
3259,600030
3261,600577
3263,599985
3265,599778
3267,601238
3269,600802
3272,601358
3274,600526
3276,601996
3278,601591
3280,602197
3282,601493
3286,601308
3288,602741
3290,602335
3292,602905
3294,602220
3296,603521
3298,603069
3301,603662
3303,602907
3305,602755
3307,604234
3309,603741
3311,604317
3314,603580
3316,604862
3318,604364
3320,604985
3322,604231
3324,604066
3328,605425
3330,605024
3332,605639
3334,604980
3336,604740
3338,605747
3340,606386
3343,605653
3345,605522
3347,606967
3349,606531
3351,607180
3353,606462
3356,606373
3358,607314
3360,607871
3362,607140
3364,607079
3366,608344
3369,607843
3372,608448
3374,607648
3376,607521
3378,608746
3380,608833
3382,607923
3385,607829
3387,608898
3389,608429
3391,608895
3393,608053
3395,607983
3398,608878
3400,608896
3402,607944
3404,607961
3406,608713
3408,608220
3411,608739
3414,607771
3416,607853
3418,608416
3420,607981
3422,607464
3424,607625
3427,608041
3429,607655
3431,608145
3433,607146
3435,607322
3437,607589
3440,607273
3442,606761
3444,607040
3446,607213
3448,606875
3450,607391
3453,606469
3456,606834
3458,606899
3460,606614
3462,607144
3464,606709
3466,606615
3469,606441
3471,607000
3473,606114
3475,606606
3477,606544
3479,606378
3482,606974
3484,606662
3486,606478
3488,606456
3490,607072
3492,606237
3495,606822
3497,606660
3500,606567
3502,607234
3504,606403
3506,606807
3508,606806
3511,607519
3513,606667
3515,607417
3517,607115
3519,607074
3521,607836
3524,606996
3526,607472
3528,607491
3530,608241
3532,607461
3534,608232
3537,607958
3539,607955
3542,608693
3544,607946
3546,608671
3548,608398
3550,609192
3553,608445
3555,609242
3557,608907
3559,609024
3561,609724
3563,608922
3566,609746
3568,609529
3570,610286
3572,609489
3574,610336
3576,610047
3579,610098
3581,610783
3584,610036
3586,610871
3588,610561
3590,611378
3592,610570
3595,611445
3597,611103
3599,611170
3601,611886
3603,611076
3605,611971
3608,611613
3610,611715
3612,611631
3614,612494
3616,612112
3618,612251
3621,612920
3623,612124
3625,612999
3628,612658
3630,612728
3632,612582
3635,613450
3637,613072
3639,613285
3641,613786
3643,613002
3645,613897
3647,613489
3650,613781
3652,614184
3654,614275
3656,613869
3658,614244
3660,614485
3663,613823
3665,614685
3667,614326
3670,614681
3672,614772
3674,615089
3677,614685
3679,615209
3681,615114
3683,614596
3685,615521
3687,615097
3689,615610
3692,615435
3694,614929
3696,615488
3698,616136
3700,615815
3702,615387
3705,616388
3707,616001
3709,616689
3712,616303
3714,615829
3716,616478
3719,617206
3721,616657
3723,616288
3725,617273
3727,616875
3729,617667
3731,616991
3734,616556
3736,617487
3738,617838
3740,616937
3742,616443
3744,617314
3747,616658
3749,617324
3751,616223
3753,615590
3756,616203
3758,615868
3761,614496
3763,613730
3765,614263
3767,613321
3769,613640
3771,612112
3773,611271
3776,611813
3778,610833
3780,609594
3782,608708
3784,609213
3786,608259
3789,608644
3791,607142
3793,606291
3795,606848
3798,605897
3800,604855
3803,604152
3805,604786
3807,603936
3809,604501
3811,603152
3813,602541
3815,603168
3818,602442
3820,603045
3822,601305
3824,602094
3826,601493
3828,602235
3831,601123
3833,600661
3835,601553
3837,600963
3840,601781
3842,600330
3845,601305
3847,600821
3849,601706
3851,600618
3853,600347
3855,601370
3857,600919
3860,601864
3862,600870
3864,601629
3866,601253
3868,602203
3870,601225
3873,601035
3875,602116
3877,601728
3879,602757
3881,601755
3884,602705
3887,602359
3889,603314
3891,602412
3893,602231
3895,603299
3897,602932
3899,603955
3902,603068
3904,603095
3906,603625
3908,604727
3910,603730
3912,603876
3915,604572
3917,604378
3919,605441
3921,604493
3923,604623
3926,605002
3929,606107
3931,605165
3933,605371
3935,605808
3937,605646
3939,606733
3941,605789
3944,606125
3946,606369
3948,607376
3950,606444
3952,606797
3954,606938
3957,606921
3959,608104
3961,607136
3963,607572
3965,607620
3968,608799
3971,607861
3973,608291
3975,608321
3977,608310
3979,609445
3981,608514
3983,609023
3986,608869
3988,608930
3990,609175
3992,609739
3994,609458
3996,609501
3999,610662
4001,609649
4003,610208
4005,609840
4007,609855
4009,609978
4013,610491
4015,610023
4017,610058
4019,611127
4021,610076
4023,610605
4026,610063
4028,610055
4030,611069
4032,610555
4034,609959
4036,609926
4038,610951
4041,609879
4043,610340
4045,609754
4047,609716
4049,610740
4051,610180
4055,609553
4057,609475
4059,610425
4061,609303
4063,609798
4065,609153
4068,609120
4070,610107
4072,609005
4074,608866
4076,608791
4078,609801
4080,608706
4083,609204
4085,608562
4087,608590
4089,609515
4091,608395
4093,608325
4097,608308
4099,609284
4101,608202
4103,608772
4105,608189
4107,608209
4110,609251
4112,608169
4114,608798
4116,608217
4118,609258
4120,608193
4122,608896
4125,608301
4127,608337
4129,609425
4131,608360
4133,608991
4135,608582
4139,609597
4141,608581
4143,609311
4145,608729
4147,608900
4149,609869
4152,608864
4154,609576
4156,609056
4158,610194
4160,609223
4162,610022
4164,609482
4167,609917
4169,610577
4171,609754
4173,610477
4175,610033
4177,610449
4180,610189
4183,610890
4185,610481
4187,610981
4189,611378
4191,610610
4194,611479
4196,610978
4198,611571
4200,611111
4202,611851
4204,611390
4206,612045
4209,612142
4211,611545
4213,612370
4215,611908
4217,612575
4219,612568
4222,612823
4225,612312
4227,613113
4229,613014
4231,612441
4233,613272
4236,612826
4238,613601
4240,613431
4242,613688
4244,613280
4246,614147
4248,613864
4251,613266
4253,614160
4255,613734
4257,614629
4259,614232
4261,613741
4264,614099
4267,615018
4269,614608
4271,614107
4273,614976
4275,614535
4278,615492
4280,614974
4282,614532
4284,614873
4286,615884
4288,615396
4290,614885
4293,615790
4295,615261
4297,616274
4299,615644
4301,615281
4303,616139
4306,616634
4308,616104
4311,615649
4313,616481
4315,616038
4317,616982
4320,616466
4322,615991
4324,616914
4326,617348
4328,616769
4330,616362
4332,617214
4335,616772
4337,617790
4339,617237
4341,616766
4343,617605
4345,617170
4348,617629
4350,617216
4353,618072
4355,617556
4357,618626
4359,618012
4362,617588
4364,618486
4366,618048
4368,618438
4370,618000
4372,618918
4374,618406
4377,619439
4379,618809
4381,618313
4383,619122
4385,618563
4387,619533
4390,618240
4392,618927
4395,618243
4397,619029
4399,618151
4401,617494
4404,617806
4406,617020
4408,617639
4410,615825
4412,615941
4414,614970
4417,615475
4419,614261
4421,613521
4423,613487
4425,612506
4427,612994
4429,611789
4432,610762
4434,609951
4436,610407
4439,609256
4441,608613
4443,608297
4446,607493
4448,608102
4450,606918
4452,606012
4454,605395
4456,606033
4459,605030
4461,604657
4463,604200
4465,603790
4467,604530
4469,603564
4471,603466
4474,602617
4476,603526
4478,602659
4481,602733
4483,602228
4485,602000
4488,603019
4490,602211
4492,602352
4494,601665
4496,602750
4498,602058
4501,602306
4503,601733
4505,601655
4507,602816
4509,602071
4511,602436
4513,601798
4516,602956
4518,602320
4520,602779
4523,602104
4525,602160
4527,603348
4530,602725
4532,603165
4534,602432
4536,603764
4538,603152
4540,603676
4543,602914
4545,603070
4547,604275
4549,603682
4551,604172
4553,603451
4555,603570
4558,604205
4560,604716
4562,603992
4564,604123
4567,605292
4569,604718
4572,605255
4574,604494
4576,604679
4578,605280
4580,605816
4582,604993
4585,605196
4587,606395
4589,605763
4591,606335
4593,605543
4595,605653
4597,606886
4600,606824
4602,606074
4604,606142
4606,607371
4609,606786
4611,607340
4614,606590
4616,606746
4618,608007
4620,607944
4622,607200
4624,607399
4627,608566
4629,607997
4631,608557
4633,607784
4635,608054
4637,609183
4639,608587
4642,608347
4644,608564
4646,609651
4648,609013
4651,609459
4653,608655
4656,608817
4658,609902
4660,609239
4662,608899
4664,609081
4666,610061
4669,609389
4671,609869
4673,608951
4675,609235
4677,609994
4679,609299
4681,609793
4684,609288
4686,609800
4688,609184
4690,609666
4692,608655
4695,609080
4698,609479
4700,608918
4702,609398
4704,608856
4706,609178
4708,608614
4711,609073
4713,608122
4715,608646
4717,608752
4719,608296
4721,608792
4723,607854
4726,608415
4728,607981
4730,608522
4732,607596
4734,608240
4737,608150
4740,607811
4742,608324
4744,607402
4746,607943
4748,607575
4750,608149
4753,607268
4755,608052
4757,607820
4759,607522
4761,608101
4763,607212
4766,608076
4768,607521
4770,608138
4772,607264
4774,608164
4776,607814
4779,607586
4782,608213
4784,607417
4786,608337
4788,607915
4790,608403
4792,607547
4795,608540
4797,608090
4799,607911
4801,608629
4803,607769
4805,608796
4808,608359
4810,608916
4812,608069
4814,609001
4816,608643
4818,608486
4820,609231
4824,608365
4826,609375
4828,608936
4830,608781
4832,608653
4834,609707
4837,609250
4839,609103
4841,609785
4843,609039
4845,610109
4847,609702
4850,609563
4852,609447
4854,610484
4856,610096
4858,609897
4860,610623
4862,609878
4866,610960
4868,610514
4870,610397
4872,611067
4874,611361
4876,610897
4879,610758
4881,611440
4883,610669
4885,611820
4887,611335
4889,611259
4892,611924
4894,612159
4896,611702
4898,611593
4900,612294
4902,611458
4904,612609
4908,612076
4910,612044
4912,612665
4914,611825
4916,612485
4918,612408
4921,612916
4923,612181
4925,613314
4927,612793
4929,612922
4931,613224
4934,612438
4936,613083
4938,613257
4940,613489
4942,612734
4944,613947
4946,613441
4950,613667
4952,613742
4954,613090
4956,614295
4958,614064
4960,613952
4963,613438
4965,614570
4967,614086
4969,614435
4971,614178
4973,613618
4976,614875
4978,614798
4980,614420
4982,613981
4984,615188
4986,614725
4988,615177
4992,614741
4994,614367
4996,615531
4998,615073
5000,615077
5002,614731
5005,615976
5007,615524
5009,616075
5011,615505
5013,615101
5015,616365
5018,615916
5020,615803
5022,615479
5024,616693
5026,616270
5028,616931
5030,616140
5033,615762
5036,616964
5038,616421
5040,617032
5042,615592
5044,616714
5047,616017
5049,616464
5051,615262
5053,614687
5055,615634
5057,614758
5060,615009
5062,612979
5064,613749
5066,612777
5068,612985
5070,611510
5073,610649
5075,611362
5078,610297
5080,610476
5082,609000
5084,608819
5086,607864
5089,608043
5091,606594
5093,605761
5095,606535
5097,605555
5099,605746
5102,604375
5104,604498
5106,603624
5108,603947
5110,602672
5112,602002
5114,602864
5117,602135
5120,602525
5122,601310
5124,600755
5126,601039
5128,601529
5131,600376
5133,599927
5135,600962
5137,600317
5139,600911
5141,599846
5144,599512
5146,600069
5148,600751
5150,599664
5152,599379
5154,600524
5157,600010
5159,600688
5161,599748
5164,599544
5166,600627
5168,600864
5170,599921
5173,599857
5175,600882
5177,600442
5179,601189
5181,600198
5183,600201
5186,601184
5188,601575
5190,600645
5192,600699
5194,601474
5196,601182
5199,602016
5201,601053
5203,601225
5206,601936
5208,601642
5210,601545
5212,601797
5215,602342
5217,602124
5219,602913
5221,602010
5223,602317
5225,602734
5228,602505
5230,602496
5232,602854
5234,603142
5236,602969
5238,603795
5241,602980
5243,603391
5245,603559
5248,603484
5250,604322
5252,603876
5254,603962
5257,603895
5259,604791
5261,603947
5263,604477
5265,604495
5267,604483
5270,605354
5272,605071
5274,605004
5276,604973
5278,605875
5280,605004
5283,605571
5285,605394
5287,605455
5289,606339
5292,605450
5294,605782
5296,605861
5299,606681
5301,605748
5303,606345
5305,605971
5307,606035
5309,606884
5312,605936
5314,606145
5316,606096
5318,606867
5320,605921
5322,606464
5325,606037
5327,606015
5329,606701
5331,605725
5334,606289
5336,605812
5338,606524
5341,605541
5343,606063
5345,605572
5347,605481
5349,606210
5351,605172
5354,605716
5356,605210
5358,605829
5360,604783
5362,605340
5364,604844
5367,604727
5369,605377
5371,604360
5373,604861
5376,604410
5378,605064
5380,604025
5383,604592
5385,604122
5387,604060
5389,604763
5391,603740
5393,604305
5396,603763
5398,603817
5400,603468
5402,604087
5404,603675
5406,603676
5409,604314
5411,603398
5413,603985
5415,603575
5417,603610
5420,603331
5422,603966
5425,603562
5427,603626
5429,604232
5431,603387
5433,604047
5435,603610
5438,603820
5440,604321
5442,604172
5444,603743
5446,604144
5448,604320
5451,603581
5453,604321
5455,603952
5457,604360
5459,604556
5462,604580
5464,604251
5467,604725
5469,604726
5471,604059
5473,604845
5475,604567
5477,605125
5480,605016
5482,604440
5484,604894
5486,605487
5488,605300
5490,604734
5493,605537
5495,605221
5497,605844
5499,605566
5501,605037
5504,605541
5506,606227
5509,605852
5511,605340
5513,606165
5515,605829
5517,606596
5519,606126
5522,605660
5524,606517
5526,607069
5528,606430
5530,606021
5532,606874
5535,606544
5537,607364
5539,606702
5541,606303
5543,607094
5545,607724
5549,607006
5551,606645
5553,607531
5555,607198
5557,608117
5559,607295
5561,607007
5564,607797
5566,607481
5568,607596
5570,607208
5572,608060
5574,607726
5577,608741
5579,607919
5581,607576
5583,608357
5585,608102
5587,608168
5591,607802
5593,608682
5595,608317
5597,609310
5599,608407
5601,608061
5603,608931
5606,608587
5608,609533
5610,608296
5612,609109
5614,608861
5616,609804
5619,608931
5621,608662
5623,609518
5625,609196
5627,610134
5629,609000
5633,609802
5635,609508
5637,610537
5639,609651
5641,609351
5643,610209
5645,609887
5648,610842
5650,609955
5652,610397
5654,610070
5656,610988
5658,610048
5661,609735
5663,610443
5665,610043
5667,610950
5669,609900
5671,610032
5675,609485
5677,610190
5679,608983
5681,608477
5683,608814
5685,608101
5687,608636
5690,607240
5692,606662
5694,605987
5696,606462
5698,604969
5700,604399
5703,604296
5705,603519
5707,603958
5709,602473
5711,601997
5713,601052
5716,601601
5719,600124
5721,599742
5723,599367
5725,598801
5727,599401
5729,597989
5732,597781
5734,597341
5736,597559
5738,596252
5740,596181
5742,595730
5745,595355
5747,596170
5749,594885
5751,594976
5753,594534
5755,595282
5758,594074
5761,594205
5763,593723
5765,593680
5767,594668
5769,593574
5771,593915
5774,593424
5776,593412
5778,593382
5780,593765
5782,593211
5784,593322
5787,594369
5789,593405
5791,593891
5793,593299
5795,593423
5797,593640
5800,594181
5803,593551
5805,593711
5807,594886
5809,593958
5811,594562
5813,593884
5816,594123
5818,595300
5820,594975
5822,594327
5824,594551
5826,595738
5829,594835
5831,595407
5833,594766
5835,595010
5837,596261
5839,595939
5842,595240
5844,595492
5847,596689
5849,595769
5851,596494
5853,595810
5855,596025
5858,597193
5860,596327
5862,596241
5864,596484
5866,597713
5868,596739
5871,597494
5873,596800
5875,597042
5877,598247
5879,597308
5881,597328
5884,597598
5886,598805
5889,597892
5891,598611
5893,597939
5895,598223
5898,599403
5900,598436
5902,599184
5904,598720
5906,599926
5908,598945
5910,599669
5913,598891
5915,599151
5917,600307
5919,599373
5921,600056
5923,599544
5926,600637
5928,599603
5931,600278
5933,599479
5935,599734
5937,600706
5940,599695
5942,600253
5944,599470
5946,600558
5948,599553
5950,600215
5952,599364
5955,599725
5957,600366
5959,599307
5961,599919
5963,599138
5965,599543
5968,599005
5970,599598
5972,598728
5975,599174
5977,599474
5979,598598
5982,599178
5984,598307
5986,598932
5988,598174
5990,598774
5992,597918
5994,598544
5997,598650
5999,597753
6001,598430
6003,597536
6005,598215
6007,598170
6010,598149
6012,597311
6014,598031
6017,597893
6019,597174
6021,597867
6024,597083
6026,597847
6028,597693
6030,597733
6032,596949
6034,597852
6036,597598
6039,596894
6041,597644
6043,596892
6045,597916
6047,597509
6049,596923
6052,597014
6054,598007
6056,597558
6059,597051
6061,597885
6063,597159
6066,598117
6068,597717
6070,597248
6072,597368
6074,598433
6076,597996
6078,597460
6081,598276
6083,597562
6085,598696
6087,598206
6089,597741
6091,598552
6094,598950
6096,598497
6098,597989
6100,598899
6103,598192
6105,599301
6108,598862
6110,598391
6112,599220
6114,599631
6116,599238
6118,598780
6120,599639
6123,598988
6125,600136
6127,599636
6129,599163
6131,599995
6133,599329
6136,600016
6138,599549
6140,600344
6142,599669
6145,600836
6147,600321
6150,599857
6152,600634
6154,600038
6156,600693
6158,600237
6160,601022
6162,600361
6165,601480
6167,600992
6169,600575
6171,601381
6173,600729
6175,601843
6178,600955
6180,601695
6182,601052
6184,602154
6187,601617
6189,601322
6192,601987
6194,601339
6196,602463
6198,601700
6200,602286
6202,601680
6204,602793
6207,602233
6209,602079
6211,602504
6213,601954
6215,603101
6217,602555
6220,602746
6222,602273
6224,603425
6226,602920
6228,602847
6231,602973
6234,602507
6236,603691
6238,603114
6240,603237
6242,602819
6244,603975
6246,603481
6249,603548
6251,603496
6253,603195
6255,604396
6257,603851
6259,603966
6262,603521
6264,604714
6266,604204
6268,604445
6270,604110
6273,603878
6276,605036
6278,604519
6280,604758
6282,604119
6284,605336
6286,604771
6289,605019
6291,604429
6293,604069
6295,605281
6297,604558
6299,604739
6301,603894
6304,604397
6306,603582
6308,603464
6310,602365
6312,601724
6315,602505
6318,601448
6320,601348
6322,599999
6324,599970
6326,598836
6328,598655
6331,597355
6333,596614
6335,597264
6337,596136
6339,595933
6341,594536
6343,593908
6346,593536
6348,593391
6350,592095
6352,591443
6354,592198
6356,591199
6360,591147
6362,589925
6364,589364
6366,589228
6368,589314
6370,588097
6373,587727
6375,588622
6377,587741
6379,587919
6381,586878
6383,586544
6385,587518
6388,587039
6390,586016
6392,585772
6394,586813
6396,586184
6398,586457
6402,585497
6404,585375
6406,586428
6408,586157
6410,585269
6412,585192
6415,586324
6417,585809
6419,586224
6421,585332
6423,585322
6425,586410
6427,585909
6430,585523
6432,585565
6434,586685
6436,586197
6438,586602
6440,585799
6444,585930
6446,587062
6448,586509
6450,586241
6452,586421
6454,587370
6457,586907
6459,587425
6461,586643
6463,586904
6465,587781
6467,587339
6469,587824
6472,587439
6474,588098
6476,587796
6478,588306
6480,587562
6482,587954
6486,588545
6488,588191
6490,588702
6492,588498
6494,588831
6496,588579
6499,589142
6501,588403
6503,588999
6505,589311
6507,589079
6509,589639
6511,588824
6514,589685
6516,589488
6518,590126
6520,589366
6522,590039
6524,590163
6528,590081
6530,590720
6532,589907
6534,590724
6536,590592
6538,591225
6541,590468
6543,591233
6545,591075
6547,590995
6549,591578
6551,590792
6553,591592
6556,591340
6558,591901
6560,591062
6562,591883
6564,591553
6566,591525
6569,592077
6572,591221
6574,592027
6576,591637
6578,592080
6580,591184
6583,591955
6585,591529
6587,591432
6589,591952
6591,591074
6593,591883
6595,591355
6598,591711
6600,590762
6602,591587
6604,590989
6606,590916
6608,591406
6611,590431
6614,591238
6616,590639
6618,590541
6620,590116
6622,590916
6625,590334
6627,590148
6629,590609
6631,589719
6633,590502
6635,589925
6637,589845
6640,589376
6642,590243
6644,589705
6646,589592
6648,590128
6650,589198
6653,590079
6656,589523
6658,589452
6660,590017
6662,589954
6664,589486
6667,589425
6669,589965
6671,589110
6673,589964
6675,589441
6677,589410
6680,589924
6682,590018
6684,589522
6686,589566
6688,590108
6690,589229
6692,590236
6695,589662
6697,589742
6700,590248
6702,589478
6704,589993
6706,590035
6709,590441
6711,589665
6713,590657
6715,590214
6717,590438
6719,590716
6722,590022
6724,590644
6726,590877
6728,591014
6730,590330
6732,591393
6734,590914
6737,591257
6739,591311
6742,590646
6744,591724
6746,591701
6748,591562
6751,591080
6753,592113
6755,591666
6757,592172
6759,591909
6761,591416
6764,592535
6766,592589
6768,592240
6770,591789
6772,592899
6774,592420
6776,593053
6779,592591
6781,592206
6784,593323
6786,592890
6788,592957
6790,592521
6793,593645
6795,593216
6797,593875
6799,593285
6801,592889
6803,594049
6806,593602
6808,593627
6810,593215
6812,594430
6814,593984
6816,594742
6818,593929
6821,593614
6823,594777
6825,594329
6828,595097
6830,593966
6832,595154
6835,594705
6837,595535
6839,594609
6841,594323
6843,595520
6845,595024
6848,595869
6850,594675
6852,595859
6854,595402
6856,596301
6858,595299
6860,595016
6863,596232
6865,595752
6867,596626
6870,595674
6872,596528
6874,596116
6877,597003
6879,596118
6881,595846
6883,597012
6885,596573
6887,597419
6890,596468
6892,597423
6894,596971
6896,597860
6898,596908
6900,596614
6902,597791
6905,597393
6907,598281
6909,597303
6912,596976
6914,597733
6916,598591
6919,597569
6921,597278
6923,598417
6925,597907
6927,598597
6929,597452
6932,597090
6934,597372
6936,597946
6938,596590
6940,596001
6942,596728
6944,595854
6947,596178
6949,594687
6951,593881
6953,594477
6956,593723
6958,592100
6961,591386
6963,591744
6965,590731
6967,590984
6969,589403
6971,588739
6974,589003
6976,588307
6978,586753
6980,586209
6982,586383
6984,585496
6986,585811
6989,584274
6991,583909
6993,584026
6995,583222
6998,582285
7000,582010
7003,582053
7005,581469
7007,581993
7009,580666
7011,580561
7013,580604
7016,580153
7018,579540
7020,579582
7022,579583
7024,579244
7026,579971
7029,578834
7031,579034
7033,579038
7035,578764
7037,579593
7040,578800
7042,578752
7045,578548
7047,579433
7049,578430
7051,578820
7053,578698
7055,578618
7058,579521
7060,579030
7062,578881
7064,578924
7066,579863
7068,578957
7071,579489
7073,579252
7075,579330
7077,580317
7079,579451
7081,579717
7084,579735
7087,580737
7089,579852
7091,580446
7093,580189
7095,580347
7097,581275
7100,580400
7102,580724
7104,580865
7106,581845
7108,580973
7110,581577
7113,581264
7115,581379
7117,582413
7119,581570
7121,582184
7123,581965
7126,583025
7129,582095
7131,582753
7133,582429
7135,582586
7137,583571
7139,582703
7142,583396
7144,583206
7146,584211
7148,583369
7150,584046
7152,583738
7155,583901
7157,584956
7159,584057
7161,584731
7163,584441
7165,585594
7168,584755
7171,585452
7173,585057
7175,585219
7177,586228
7179,585334
7181,586005
7184,585620
7186,585739
7188,585765
7190,586393
7192,586007
7194,586115
7197,586996
7199,586052
7201,586651
7203,586224
7205,586308
7207,586128
7209,586737
7213,586229
7215,586331
7217,587008
7219,585977
7221,586585
7223,586042
7226,586173
7228,586736
7230,586237
7232,585724
7234,585932
7236,586263
7239,585283
7241,585854
7243,585320
7245,585633
7247,585814
7249,585470
7251,584909
7255,585301
7257,585400
7259,584530
7261,585102
7263,584537
7265,585016
7268,584988
7270,584139
7272,584228
7274,584766
7276,584649
7278,583923
7281,584544
7283,583996
7285,584598
7287,584401
7289,583776
7291,583943
7293,584597
7297,584283
7299,583676
7301,584367
7303,583934
7305,584671
7307,584311
7310,583658
7312,584414
7314,584781
7316,584382
7318,583855
7320,584569
7323,584246
7325,585126
7327,584601
7329,584165
7331,584914
7333,585382
7335,584804
7339,584365
7341,585181
7343,584815
7345,585768
7347,585178
7349,584748
7352,585591
7354,585255
7356,585611
7358,585201
7360,586034
7362,585674
7365,586617
7367,585991
7369,585579
7371,586450
7373,586055
7375,586417
7377,586036
7380,586899
7383,586525
7385,587538
7387,586917
7389,586525
7391,587378
7394,586982
7396,588004
7398,587005
7400,587851
7402,587522
7404,588510
7407,587880
7409,587446
7411,588300
7413,587960
7425,589446
7425,589446
7426,589446
7428,588767
7430,588432
7432,589253
7434,588857
7435,589905
7437,589212
7439,588904
7441,589707
7443,589357
7445,590409
7447,589746
7449,589361
7451,590157
7453,589797
7455,590765
7457,590093
7459,589820
7461,590561
7463,590260
7465,591232
7468,590541
7470,590281
7472,590978
7474,590629
7476,591592
7478,590960
7480,590754
7482,591032
7484,591954
7486,591320
7488,591244
7491,591583
7493,591336
7495,592416
7497,591696
7499,591766
7501,591771
7504,592865
7506,592184
7508,592242
7511,592407
7513,592236
7515,593293
7517,592652
7520,592775
7522,592840
7524,593765
7526,593102
7528,593256
7530,593162
7533,593121
7535,594226
7537,593515
7539,593681
7541,593444
7543,594479
7546,593631
7548,593772
7550,593329
7553,593181
7555,594070
7557,593127
7559,593197
7562,592418
7564,592057
7566,591623
7568,591465
7570,590417
7572,590026
7575,590587
7577,589306
7579,589125
7581,587962
7583,587432
7585,586618
7588,586412
7590,585109
7592,584650
7595,585203
7597,583878
7599,583748
7601,582522
7604,582090
7606,582634
7608,581305
7610,580107
7612,579732
7614,580344
7617,579182
7619,579155
7621,578019
7623,577773
7625,578500
7627,577492
7630,576452
7632,576304
7634,577110
7636,576150
7639,576286
7641,575395
7643,575302
7646,576137
7648,575230
7650,574624
7652,574647
7654,575576
7656,574762
7659,575137
7661,574321
7663,574332
7665,575411
7667,574609
7669,574258
7672,574374
7674,575471
7676,574741
7678,575189
7681,574467
7683,574712
7685,575801
7688,575062
7690,575599
7692,575121
7694,576194
7696,575557
7698,576111
7701,575368
7703,575676
7705,576856
7707,576160
7709,576680
7711,576341
7714,577460
7716,576833
7718,577378
7720,576783
7723,577037
7725,578097
7727,577407
7730,578049
7732,577362
7734,578753
7736,578073
7738,578715
7740,578081
7743,578561
7745,579327
7747,578750
7749,579463
7751,578775
7753,579988
7756,579506
7758,580198
7760,579490
7762,580208
7764,580763
7767,580305
7769,580956
7772,580253
7774,581019
7776,581061
7778,581753
7780,581146
7782,581894
7785,582206
7787,581835
7789,582513
7791,581866
7793,582653
7795,582877
7798,583159
7800,582467
7802,583278
7804,583345
7806,583022
7809,583683
7812,582966
7814,583776
7816,583684
7818,583955
7820,583185
7822,584025
7824,583808
7827,583428
7829,584106
7831,583258
7833,584077
7835,583726
7837,583289
7840,582981
7842,583851
7844,583421
7846,582942
7848,583520
7851,582601
7854,583522
7856,583030
7858,582528
7860,582247
7862,583098
7864,582536
7866,582123
7869,582695
7871,581804
7873,582701
7875,582176
7877,581706
7879,582291
7882,582320
7884,581720
7886,581316
7888,581946
7890,581099
7892,581974
7896,581432
7898,581071
7900,581695
7902,581760
7904,581201
7906,580833
7908,581484
7911,580667
7913,581675
7915,581206
7917,580837
7919,581445
7921,580659
7924,581209
7926,580896
7928,581559
7930,580763
7932,581817
7934,581332
7938,581043
7940,581717
7942,580980
7944,581541
7946,581258
7948,581991
7950,581248
7953,582326
7955,581926
7957,581650
7959,582374
7961,581622
7963,582715
7966,582010
7968,582703
7970,581948
7972,583101
7974,582689
7976,582534
7980,583121
7982,582418
7984,583558
7986,583060
7988,583540
7990,582863
7992,584067
7995,583624
7997,583555
7999,583973
8001,583388
8003,584540
8005,584092
8008,584445
8010,583878
8012,585009
8014,584673
8016,584746
8018,584875
8022,584333
8024,585558
8026,585181
8028,585273
8030,584875
8032,586050
8034,585690
8037,585846
8039,585762
8041,585298
8043,586564
8045,586167
8047,586405
8050,585781
8052,587078
8054,586669
8056,586900
8058,586602
8060,586293
8064,587535
8066,587182
8068,587506
8070,586759
8072,587995
8074,587600
8077,587978
8079,587500
8081,587213
8083,588492
8085,588076
8087,588470
8089,587863
8092,588888
8094,588480
8096,588918
8098,588220
8100,588015
8102,589336
8105,588929
8108,589436
8110,588707
8112,589770
8114,589348
8116,589880
8118,589183
8121,588959
8123,590264
8125,589879
8127,590375
8129,589660
8131,589452
8134,590359
8136,590870
8138,590135
8140,589897
8142,591186
8144,590768
8147,591271
8150,590490
8152,590212
8154,590931
8156,591358
8158,590420
8161,590078
8163,591189
8165,590464
8167,590669
8169,589568
8171,588993
8173,589847
8176,588972
8178,587688
8180,586981
8182,587714
8184,586666
8186,586585
8189,585182
8192,584405
8194,585043
8196,583804
8198,582413
8200,581603
8203,582237
8205,581161
8207,581081
8209,579728
8211,578940
8213,579605
8215,578587
8218,577203
8220,576485
8222,577173
8224,576268
8226,576313
8228,575079
8231,574511
8233,575247
8236,574388
8238,573340
8240,572922
8242,573661
8245,572931
8247,573140
8249,572107
8251,571824
8253,572526
8255,571900
8257,572259
8260,571201
8262,571758
8264,571318
8266,571716
8268,570812
8270,570898
8273,571423
8275,571159
8278,571584
8280,570960
8282,571462
8284,571214
8287,571737
8289,570959
8291,571223
8293,571615
8295,571475
8297,572035
8299,571301
8302,572009
8304,571886
8306,572478
8308,571809
8310,572178
8312,572433
8315,572409
8317,573092
8320,572449
8322,573081
8324,573122
8326,573808
8329,573096
8331,573610
8333,573733
8335,573713
8337,574444
8339,573702
8341,574355
8344,574413
8346,575094
8348,574464
8350,575077
8352,575051
8354,575075
8357,575810
8359,575130
8361,575874
8364,575805
8366,576548
8368,575853
8371,576658
8373,576553
8375,576682
8377,577341
8379,576655
8381,577442
8383,577303
8386,578174
8388,577507
8390,578269
8392,578086
8394,578275
8396,579018
8399,578333
8401,579082
8403,578953
8406,579022
8408,579074
8410,579744
8413,579494
8415,579636
8417,580290
8419,579547
8421,580228
8423,579972
8425,580031
8428,579853
8430,580586
8432,580266
8434,580257
8436,580833
8438,580028
8441,580656
8443,580275
8445,580287
8448,580732
8450,580520
8452,580135
8455,580071
8457,580493
8459,579636
8461,580267
8463,579827
8465,579792
8467,580307
8470,579954
8472,579453
8474,579472
8476,579923
8478,578985
8480,579628
8483,579131
8485,579136
8487,579527
8489,578686
8492,578816
8494,578886
8497,579226
8499,578340
8501,579008
8503,578619
8505,578742
8507,578940
8509,578170
8512,578391
8514,578692
8516,578712
8518,578040
8520,578773
8522,578344
8525,578767
8527,578675
8529,578039
8531,578763
8534,578892
8536,578697
8539,578103
8541,578906
8543,578562
8545,579093
8547,578808
8549,578328
8552,579154
8554,579452
8556,579096
8558,578692
8560,579487
8562,579264
8564,579812
8567,579423
8569,579004
8571,579930
8573,579621
8576,579831
8578,579462
8581,580378
8583,580057
8585,580824
8587,580219
8589,579872
8591,580805
8594,580559
8596,580712
8598,580462
8600,581379
8602,581104
8604,581947
8606,581155
8609,580903
8611,581931
8613,581624
8615,582485
8617,581441
8620,582449
8623,582168
8625,583062
8627,582204
8629,582033
8631,582994
8633,582742
8636,583592
8638,582502
8640,583546
8642,583228
8644,584170
8646,583299
8648,583060
8651,584073
8653,583739
8655,584620
8657,583772
8659,584501
8662,584212
8665,585143
8667,584254
8669,584022
8671,585056
8673,584751
8675,585691
8678,584744
8680,585510
8682,585192
8684,586128
8686,585220
8688,584967
8690,585991
8693,585668
8695,586584
8697,585624
8699,585443
8701,586128
8704,587079
8707,586106
8709,585945
8711,586912
8713,586550
8715,587515
8717,586570
8720,586373
8722,587029
8724,587950
8726,587043
8728,586835
8730,587790
8732,587508
8735,588436
8737,587472
8739,587333
8741,588312
8743,588880
8745,587975
8749,587918
8751,588739
8753,588486
8755,589418
8757,588517
8759,588446
8762,589091
8764,589759
8766,588790
8768,588809
8770,589256
8772,588905
8774,589770
8777,588639
8779,588539
8781,588664
8783,588133
8785,587499
8787,587296
8791,587083
8793,586419
8795,586861
8797,585438
8799,585099
8801,584604
8804,583906
8806,582695
8808,582363
8810,581786
8812,581048
8814,581390
8816,579729
8819,579417
8821,578774
8823,578113
8825,578492
8827,576729
8829,576005
8833,575432
8835,575897
8837,574412
8839,574223
8841,573481
8843,573029
8846,573550
8848,572148
8850,571393
8852,571068
8854,571690
8856,570403
8858,570572
8861,569871
8863,569653
8865,570402
8867,569110
8869,568775
8871,568660
8875,569531
8877,568357
8879,568767
8881,568166
8883,568122
8885,569079
8888,568071
8890,567926
8892,567919
8894,568926
8896,567899
8898,568414
8900,567957
8903,568011
8905,569027
8907,568103
8909,568663
8911,568330
8913,569350
8916,568486
8919,569104
8921,568655
8923,568852
8925,569936
8927,569032
8930,569689
8932,569513
8934,570604
8936,569762
8938,570417
8940,570007
8943,570184
8945,571333
8947,570423
8949,571099
8951,570672
8953,571993
8955,571077
8958,571815
8961,571408
8963,571615
8965,572705
8967,571807
8969,572502
8972,572145
8974,572349
8976,572609
8978,573307
8980,572919
8982,573163
8985,574210
8987,573352
8989,574068
8991,573721
8993,573967
8995,574179
8997,574874
9000,574501
9003,574763
9005,575748
9007,574965
9009,575688
9011,575305
9014,575681
9016,576553
9018,576457
9020,576061
9022,576474
9024,577141
9027,576366
9029,577059
9031,576672
9033,577161
9035,577683
9037,577601
9039,577130
9042,577630
9044,577951
9047,577185
9049,577862
9051,577333
9053,577800
9056,578005
9058,577286
9060,577379
9062,577880
9064,577920
9066,577145
9069,577806
9071,577181
9073,577755
9075,577688
9077,576937
9079,576955
9081,577551
9084,577329
9086,576614
9089,577230
9091,576607
9093,577266
9095,577000
9098,576315
9100,576891
9102,576976
9104,576620
9106,575978
9108,576514
9111,575978
9113,576721
9115,576229
9117,575632
9119,576277
9121,576499
9123,575993
9126,575452
9128,576120
9131,575630
9133,576377
9135,575935
9137,575396
9140,576054
9142,575600
9144,575956
9146,575413
9148,576163
9150,575722
9153,576583
9155,576085
9157,575635
9159,576361
9161,575954
9163,576339
9165,575860
9168,576641
9170,576230
9172,577141
9175,576672
9177,576276
9179,577012
9182,576612
9184,577537
9186,576604
9188,577372
9190,576995
9192,577896
9195,577426
9197,577047
9199,577808
9201,577503
9203,578467
9205,577548
9207,578314
9210,577874
9212,578889
9214,578448
9217,578032
9219,578866
9221,578482
9224,579513
9226,578993
9228,579429
9230,579046
9232,580066
9234,579548
9237,579258
9239,579965
9241,579702
9243,580675
9245,580227
9247,580599
9249,580268
9252,581253
9254,580739
9256,580383
9259,581073
9261,580750
9263,581717
9266,581285
9268,581015
9270,581224
9272,582204
9274,581709
9276,581575
9279,581925
9281,581666
9283,582745
9285,582278
9287,582168
9289,582236
9292,583223
9294,582716
9296,582730
9298,582808
9300,582660
9303,583728
9305,583227
9308,583261
9310,583276
9312,584177
9314,583734
9316,583819
9318,583680
9321,583582
9323,584612
9325,584127
9327,584299
9329,584084
9331,585087
9334,584527
9336,584752
9338,584453
9340,584435
9342,585546
9345,585069
9347,585295
9350,584948
9352,584937
9354,585540
9356,585903
9358,585376
9360,585457
9363,586602
9365,586057
9367,586412
9369,585920
9371,585954
9373,586657
9376,586953
9378,586339
9380,586449
9382,587564
9384,587029
9387,587347
9389,586622
9392,586683
9394,587758
9396,587285
9398,586449
9400,586364
9402,587223
9405,586357
9407,586441
9409,585350
9411,585005
9413,585671
9415,584482
9418,583287
9420,582856
9422,583363
9424,582162
9426,581972
9428,580619
9431,580094
9434,580537
9436,579350
9438,577767
9440,577217
9442,577711
9444,576511
9447,576363
9449,575026
9451,574516
9453,575032
9455,573874
9457,572449
9460,572064
9462,572627
9464,571568
9466,571479
9468,570279
9470,569956
9473,570607
9476,569701
9478,569734
9480,568461
9482,569143
9484,568300
9486,568431
9489,567397
9491,567345
9493,568194
9495,567422
9497,567637
9499,566724
9502,567589
9504,566928
9506,567200
9508,566372
9510,566533
9512,567375
9515,566757
9518,567184
9520,566433
9522,567469
9524,566965
9526,567443
9528,566645
9531,567093
9533,567797
9535,567356
9537,567820
9539,567153
9541,568237
9544,567892
9546,568418
9548,567708
9550,568321
9552,568809
9554,568542
9556,569095
9560,568404
9562,569074
9564,569197
9566,569845
9568,569249
9570,569897
9573,570156
9575,570012
9577,570577
9579,569905
9581,570684
9583,570947
9586,571377
9588,570685
9590,571534
9592,571696
9594,571533
9596,572195
9598,571579
9602,572415
9604,572511
9606,573065
9608,572415
9610,573363
9612,573321
9615,573256
9617,573952
9619,573342
9621,574300
9623,574224
9625,574201
9628,574312
9630,575286
9632,575053
9634,575028
9636,575788
9638,575157
9640,576107
9644,575887
9646,575818
9648,575828
9650,576806
9652,576515
9654,576486
9657,577094
9659,576349
9661,577271
9663,576842
9665,576767
9667,577317
9670,577477
9672,577007
9674,576787
9676,577369
9678,576581
9680,577432
9683,576928
9686,576692
9688,577154
9690,577170
9692,576696
9694,576420
9696,576923
9699,576051
9701,576842
9703,576254
9705,576062
9707,576442
9709,575535
9712,575819
9714,575647
9716,576035
9718,575165
9720,575982
9722,575488
9725,575166
9728,575608
9730,574775
9732,575050
9734,574785
9736,575239
9738,574457
9741,575308
9743,574746
9745,574588
9747,575001
9749,574158
9751,575121
9754,574395
9756,574913
9758,574150
9760,575059
9762,574566
9764,574492
9767,574933
9769,574182
9772,575055
9774,574625
9776,575014
9778,574260
9780,575333
9783,574892
9785,574941
9787,575165
9789,574529
9791,575541
9793,575186
9796,575451
9798,574888
9800,575911
9802,575580
9804,575782
9806,575770
9809,575282
9811,576347
9814,575981
9816,576228
9818,575784
9820,576858
9822,576486
9825,576856
9827,576647
9829,576258
9831,577374
9833,576964
9835,577435
9838,576784
9840,577892
9842,577555
9844,578002
9846,577687
9848,577341
9851,578495
9853,578113
9856,578661
9858,577890
9860,579126
9862,578733
9864,579302
9867,578738
9869,578419
9871,579617
9873,579252
9875,579855
9877,579309
9880,580181
9882,579834
9884,580450
9886,579724
9888,579494
9890,580718
9893,580331
9895,580963
9897,580189
9900,581205
9902,580816
9904,581415
9906,580686
9909,580399
9911,581593
9913,581272
9915,581973
9917,581155
9919,580888
9922,581748
9924,582421
9926,581657
9928,581435
9930,582617
9932,582238
9935,582932
9937,582084
9939,581910
9942,582765
9944,583388
9946,582576
9948,582348
9951,583488
9953,583172
9955,583839
9957,583054
9959,582841
9961,583979
9964,584369
9966,583539
9968,583323
9970,584563
9972,584176
9974,584875
9977,583981
9979,583795
9981,584963
9984,585199
9986,584335
9988,584068
9990,585146
9993,584687
9995,585263
9997,584216
9999,583807
10001,584784
10004,584445
10006,583245
10008,582702
10011,583442
10013,582612
10015,582804
10018,580846
10020,581392
10022,580382
10025,580501
10028,579065
10030,578753
10032,577799
10035,577878
10037,576351
10039,575786
10042,574992
10044,575122
10046,573693
10049,573204
10051,573285
10053,572546
10056,571126
10058,570681
10060,570821
10063,570102
10065,570341
10067,568746
10071,568797
10073,568201
10075,568505
10078,567288
10080,567193
10082,566702
10085,567123
10087,566033
10089,566089
10092,565732
10094,566255
10096,565282
10099,565458
10101,565400
10103,565813
10106,564872
10108,565155
10110,565148
10114,565010
10116,565656
10118,565243
10120,565149
10123,565157
10125,565880
10127,565025
10130,565451
10132,565447
10134,566282
10137,565507
10139,566067
10141,566056
10144,566871
10146,566108
10148,566727
10151,566580
10153,567579
10156,566796
10159,567510
10161,567295
10163,567418
10166,568323
10168,568226
10170,568092
10173,568278
10175,569175
10177,568412
10180,568916
10182,569107
10184,569941
10187,569231
10189,569926
10191,569936
10194,570851
10196,570133
10199,570834
10202,570664
10204,571758
10206,571103
10208,571777
10211,571590
10213,571819
10215,572733
10218,572794
10220,572628
10222,572883
10225,573696
10227,572968
10229,573558
10232,573712
10234,574569
10236,573833
10240,574575
10242,574568
10244,575304
10247,574555
10249,575307
10251,575007
10254,575838
10256,575034
10258,575689
10261,575382
10263,575527
10265,576166
10268,575947
10270,575531
10272,575648
10275,576238
10277,575342
10279,575503
10283,575576
10285,575995
10287,575143
10290,575668
10292,575432
10294,575716
10296,574846
10299,575389
10301,575006
10303,575200
10306,574473
10308,575016
10310,574550
10313,574830
10315,574918
10317,574684
10320,574200
10322,574579
10324,574471
10328,573784
10330,573895
10332,574323
10335,574167
10337,573493
10339,574078
10342,574188
10344,573893
10346,573307
10349,573891
10351,573591
10353,574141
10356,573241
10358,573941
10360,573566
10363,574230
10365,573807
10368,574022
10371,573747
10373,574380
10375,573908
10378,573580
10380,574000
10382,574763
10384,574181
10387,573815
10389,574607
10391,575157
10394,574599
10396,574259
10398,575105
10401,574899
10403,575692
10405,574728
10408,575520
10411,575352
10413,576230
10416,575593
10418,576053
10420,575870
10423,576798
10425,576078
10427,575888
10430,576428
10432,577353
10434,576704
10437,576440
10439,577289
10441,578045
10444,577264
10446,576989
10448,577870
10451,577703
10454,578584
10456,577597
10459,578511
10461,578255
10463,579216
10466,578435
10468,579076
10470,578818
10472,579781
10475,579044
10477,578791
10479,579370
10482,580339
10484,579582
10486,579291
10489,580150
10491,580938
10493,580077
10497,579861
10499,580685
10501,580470
10504,581409
10506,580403
10508,581172
10511,580963
10513,581917
10515,581126
10518,581633
10520,581412
10522,582379
10525,581573
10527,581353
10529,581888
10532,582910
10534,582022
10536,581909
10540,582585
10542,583320
10544,582530
10547,582456
10549,583001
10551,582805
10554,583786
10556,583022
10558,583380
10560,583277
10563,584281
10565,583483
10567,583853
10570,583751
10572,584826
10574,583978
10577,584207
10579,584281
10582,585325
10585,584519
10587,584726
10589,584785
10592,584810
10594,584948
10596,585117
10599,585025
10601,584948
10603,585933
10606,585094
10608,584698
10610,584555
10613,585331
10615,584147
10617,583449
10620,583138
10622,583725
10625,582404
10628,582258
10630,580782
10632,581240
10635,579786
10637,579550
10639,578462
10642,577942
10644,576877
10646,576582
10648,575389
10651,574847
10653,575281
10655,573570
10658,572355
10660,571884
10662,572271
10665,570796
10668,569501
10670,569149
10673,569662
10675,568225
10677,568296
10680,566905
10682,567559
10684,566208
10687,566356
10689,565329
10691,565134
10694,564627
10696,564880
10698,563915
10701,563899
10703,564689
10705,563902
10708,563054
10711,563087
10713,563986
10716,562935
10718,562547
10720,562667
10723,563689
10725,562750
10727,563234
10729,562756
10732,563681
10734,562876
10736,563417
10739,562745
10741,563029
10743,563207
10746,563782
10748,563114
10750,563423
10754,564504
10756,564325
10758,563750
10761,564014
10763,565120
10765,564293
10768,564340
10770,564643
10772,565726
10775,564986
10777,565635
10779,565394
10782,566427
10784,565636
10786,566294
10789,565707
10791,566133
10793,566316
10797,566983
10799,566391
10801,566869
10804,567759
10806,567619
10808,567063
10811,567597
10813,568301
10815,567579
10817,567742
10820,568332
10822,568901
10824,568281
10827,568983
10829,569132
10831,569658
10834,568991
10836,569785
10839,569271
10842,570001
10844,569816
10846,570647
10849,570121
10851,570839
10853,571126
10856,571310
10858,570752
10860,571500
10863,571625
10865,571163
10867,571275
10870,572133
10872,572117
10874,571526
10877,572294
10880,571649
10882,572347
10885,571775
10887,572467
10889,571756
10892,572606
10894,571772
10896,572422
10899,571791
10901,572611
10903,572274
10905,572342
10908,571657
10910,572585
10912,572164
10915,571574
10917,571450
10919,572299
10923,571842
10925,571231
10927,571844
10930,571122
10932,571544
10934,570962
10937,571621
10939,570872
10941,571792
10944,570768
10946,571335
10948,570649
10951,571553
10953,571088
10955,571213
10958,570540
10960,571458
10962,570980
10966,570511
10968,570509
10970,571474
10973,570954
10975,570489
10977,571223
10980,570608
10982,571157
10984,570630
10987,571420
10989,570855
10991,571843
10993,570992
10996,571731
10998,571140
11000,572148
11003,571686
11005,572050
11008,571457
11011,572547
11013,572140
11015,571772
11018,571973
11020,573038
11022,572645
11025,572299
11027,573023
11029,572464
11032,573117
11034,572790
11036,573530
11039,573005
11041,574070
11043,573427
11046,574110
11048,573641
11051,574647
11054,574268
11056,574660
11058,574205
11061,575334
11063,574929
11065,574761
11068,574743
11070,575867
11072,575464
11075,575411
11077,575698
11079,575341
11081,576065
11084,576020
11086,576202
11088,575872
11091,576971
11094,576670
11096,576775
11099,576410
11101,577639
11103,577224
11106,577290
11108,577025
11110,578182
11113,577719
11115,577909
11117,577540
11120,578706
11122,578317
11124,578527
11127,578234
11129,578016
11131,578822
11134,579068
11137,578667
11139,578552
11142,579690
11144,579592
11146,579095
11149,578988
11151,580208
11153,579807
11156,579571
11158,579480
11160,580631
11163,580197
11165,580489
11167,579893
11169,581090
11172,580634
11174,581061
11176,580425
11180,580428
11182,581073
11184,581501
11187,580856
11189,580863
11191,582053
11194,582050
11196,581416
11198,581430
11201,582601
11203,582180
11205,581936
11208,581922
11210,583141
11212,582750
11215,583163
11217,582515
11219,583725
11223,583242
11225,583652
11227,582966
11230,582919
11232,583518
11234,583890
11237,583123
11239,582945
11241,583919
11244,583458
11246,582356
11248,582143
11250,582960
11253,582105
11255,580866
11257,580363
11260,580974
11262,579938
11265,579752
11268,578381
11270,578293
11272,577128
11275,576868
11277,575435
11279,574819
11282,574127
11284,573853
11286,572424
11289,571784
11291,572167
11293,570892
11296,569496
11298,568972
11300,569349
11303,568369
11305,566833
11308,566528
11311,566925
11313,566008
11315,565955
11318,564742
11320,564888
11322,564151
11325,564163
11327,563106
11329,563157
11332,562808
11334,562971
11336,562006
11338,562176
11341,562415
11343,562217
11345,561310
11348,561576
11351,561822
11353,561492
11356,561030
11358,561482
11360,561707
11363,561445
11365,561903
11367,561183
11370,561821
11372,561627
11374,562086
11377,561427
11379,562079
11381,562057
11384,562615
11386,561953
11388,562643
11392,562717
11394,563230
11396,562554
11399,563348
11401,563293
11403,563261
11406,563257
11408,564037
11410,563960
11413,564013
11415,564668
11417,563988
11420,564645
11422,564692
11424,565323
11426,564680
11429,565537
11431,565394
11433,565971
11437,565325
11439,566311
11441,566070
11444,566730
11446,566170
11448,567062
11451,566804
11453,566915
11455,567537
11458,567815
11460,567563
11462,567671
11465,568328
11467,567711
11469,568472
11472,568517
11474,569165
11476,568535
11480,569524
11482,569400
11484,570017
11487,569377
11489,570294
11491,570047
11494,570717
11496,570001
11498,570874
11501,570577
11503,570594
11505,571174
11508,571381
11510,570929
11512,570924
11514,571425
11517,570696
11520,571094
11522,571090
11525,571501
11527,570702
11529,571556
11532,571026
11534,571452
11536,570599
11539,571409
11541,570919
11543,571213
11546,570392
11548,571170
11550,570655
11553,570683
11555,570899
11557,570856
11560,570353
11563,570358
11565,570541
11568,569740
11570,570063
11572,570146
11575,570196
11577,569373
11579,570268
11582,569934
11584,569872
11586,569206
11589,570031
11591,569567
11593,569679
11596,569013
11598,569948
11600,569496
11602,569796
11606,569530
11608,569940
11610,569448
11613,569844
11615,569585
11617,569083
11620,569643
11622,570157
11624,569717
11627,569318
11629,570321
11631,570523
11634,570011
11636,569584
11638,570687
11641,570293
11643,570360
11645,570028
11649,571077
11651,570733
11653,571384
11656,570816
11658,571616
11660,571322
11663,572035
11665,571375
11667,571045
11670,571833
11672,572610
11674,571901
11677,571648
11679,572714
11681,573191
11684,572399
11686,572191
11688,573337
11691,573037
11694,573865
11696,572829
11698,573976
11701,573614
11703,574461
11705,573647
11708,574568
11710,574174
11712,575016
11715,574221
11717,574012
11719,574848
11722,575654
11724,574793
11726,574575
11729,575760
11731,576218
11734,575356
11737,575156
11739,576300
11741,575965
11744,576814
11746,575710
11748,576853
11751,576473
11753,577319
11755,576443
11758,577348
11760,576988
11762,577809
11765,576943
11767,576719
11769,577476
11772,578323
11774,577387
11777,577203
11779,578254
11782,578845
11784,577895
11786,577720
11789,578789
11791,578421
11793,579234
11796,578179
11798,579283
11800,578908
11803,579659
11805,578876
11807,579734
11810,579417
11812,580246
11814,579386
11817,579224
11820,579869
11822,580733
11825,579828
11827,579820
11829,580693
11832,581272
11834,580407
11836,580525
11839,581261
11841,581017
11843,581789
11846,581105
11848,581686
11850,581467
11853,582328
11855,581415
11857,581951
11859,581694
11863,582451
11865,581448
11867,581560
11870,581404
11872,581978
11874,580780
11877,580744
11879,580606
11881,580505
11884,579212
11886,579027
11888,578577
11891,577923
11893,578243
11895,576485
11898,575796
11900,575180
11902,575403
11906,573838
11908,572846
11910,572126
11913,572405
11915,570872
11917,570639
11920,569231
11922,569520
11924,568014
11927,567877
11929,567056
11931,566794
11934,565459
11936,565459
11938,564693
11941,564308
11943,564757
11945,563584
11948,562922
11951,562496
11953,563149
11955,561945
11958,561484
11960,561329
11962,561924
11965,560819
11967,561156
11969,560550
11972,561317
11982,561057
11983,561057
11985,560141
11987,560614
11988,560322
11991,560334
11993,561168
11995,560303
11997,560844
11999,560562
12001,560623
12003,561513
12005,560716
12007,561291
12009,561007
12011,561163
12013,562117
12015,561319
12017,561973
12019,561836
12022,562772
12024,562051
12026,562666
12029,562414
12032,562582
12034,562764
12036,563444
12039,563184
12041,563360
12043,564293
12046,564164
12048,563916
12050,564133
12053,565026
12055,564266
12057,564710
12060,564905
12062,565747
12064,564998
12067,565673
12069,565712
12071,566535
12075,565850
12077,566531
12079,566279
12082,566620
12084,566685
12086,567456
12089,567168
12091,567689
12093,568222
12096,568394
12098,568122
12100,568697
12103,569095
12105,568482
12107,568966
12110,569583
12112,569838
12114,569240
12118,570021
12120,570355
12122,570457
12124,569826
12127,570525
12129,570215
12131,570808
12134,570143
12136,570883
12138,570460
12141,571106
12143,570896
12145,570947
12148,570582
12150,571164
12152,570849
12155,570180
12157,570387
12160,571006
12163,570585
12165,570002
12167,570570
12170,570796
12172,570260
12174,569696
12177,570238
12179,569827
12181,570477
12184,569314
12186,569941
12188,569475
12191,570166
12193,569516
12195,569604
12198,569171
12200,569924
12203,569234
12206,568732
12208,568876
12210,569714
12212,569059
12215,568490
12217,569179
12219,569506
12222,568890
12224,568434
12226,569115
12229,568694
12231,569529
12233,568467
12236,569167
12238,568816
12240,569648
12243,569040
12246,569331
12248,568997
12251,569909
12253,569230
12255,568823
12258,569317
12260,570170
12262,569591
12265,569262
12267,569977
12269,569701
12272,570037
12274,569721
12276,570513
12279,570169
12281,571125
12283,570207
12286,571038
12289,570727
12291,571668
12294,571104
12296,571608
12298,571327
12300,572237
12303,571714
12305,571417
12307,571929
12310,572922
12312,572332
12314,572089
12317,572835
12319,572617
12321,572970
12324,572825
12326,573484
12328,573214
12332,574209
12334,573538
12336,574014
12339,573838
12341,574862
12343,574270
12346,574630
12348,574504
12350,575460
12353,574869
12355,574891
12357,575069
12360,576099
12362,575449
12364,575588
12367,575711
12369,575661
12371,576025
12375,576162
12377,576214
12379,576175
12382,577166
12384,576772
12386,576664
12388,576646
12391,577743
12393,577088
12395,577145
12398,577199
12400,578263
12402,577650
12405,577885
12407,577614
12409,578711
12412,578102
12414,578375
12417,578043
12420,578133
12422,578624
12424,578940
12427,578518
12429,578582
12431,579772
12434,579538
12436,579060
12438,579189
12441,580309
12443,579667
12445,579562
12448,579739
12450,580855
12452,580210
12455,580664
12457,580230
12460,581311
12463,580677
12465,581109
12467,580405
12469,580526
12472,580845
12474,581260
12476,580354
12479,580401
12481,581315
12483,580566
12486,579539
12488,579381
12490,580121
12493,578968
12495,577826
12497,577461
12500,577933
12503,576647
12505,576549
12508,574795
12510,575178
12512,573872
12515,573700
12517,572276
12519,571782
12522,570788
12524,570570
12526,569142
12529,568667
12531,569058
12533,567622
12536,566219
12538,565814
12540,566264
12544,565022
12546,563632
12548,563365
12551,563847
12553,562674
12555,562741
12557,561600
12560,562006
12562,560918
12564,561022
12567,559962
12569,559934
12571,559635
12574,559880
12576,558929
12578,559011
12581,559708
12583,559204
12585,558368
12589,558559
12591,559240
12593,558456
12596,558139
12598,558510
12600,559098
12603,558427
12605,558954
12607,558273
12610,559287
12612,558740
12614,559339
12617,558663
12619,559263
12621,559254
12624,559825
12626,559185
12628,559908
12632,560235
12634,560479
12636,559830
12639,560599
12641,560895
12643,560514
12645,560573
12648,561359
12650,561535
12652,561178
12655,561913
12657,561296
12659,562226
12662,561895
12664,562623
12666,561978
12669,562859
12672,562594
12674,563280
12677,562709
12679,563602
12681,563536
12684,563981
12686,563447
12688,564391
12691,564320
12693,564108
12695,564218
12698,565303
12700,565124
12702,564915
12705,565720
12707,565176
12709,566039
12712,565863
12715,566638
12717,566016
12720,567118
12722,566666
12724,567466
12727,566907
12729,567921
12731,567675
12734,568149
12736,567518
12738,568570
12740,568218
12743,567955
12745,568006
12747,569036
12750,568645
12752,568317
12754,568984
12758,568207
12760,568783
12762,568408
12765,569078
12767,568298
12769,569258
12772,568377
12774,569028
12776,568183
12779,569138
12781,568602
12783,568758
12786,567999
12788,568897
12790,568347
12793,568015
12795,567748
12797,568663
12801,568132
12803,567674
12805,568293
12808,567471
12810,567870
12812,567452
12815,567957
12817,567211
12819,568133
12821,567260
12824,567847
12826,567061
12828,568032
12831,567515
12833,567777
12835,567076
12838,568011
12840,567541
12843,567349
12846,567789
12848,568076
12850,567649
12853,567513
12855,567883
12857,567255
12860,567786
12862,567814
12864,568006
12867,567512
12869,568573
12871,568157
12874,568328
12876,567805
12878,568984
12881,568534
12883,568723
12886,568314
12889,569436
12891,569159
12893,569328
12896,569217
12898,570063
12900,569697
12903,569950
12905,569775
12907,569396
12909,570268
12912,570541
12914,570284
12916,569994
12919,571258
12921,571223
12923,570840
12926,570653
12929,571897
12931,571554
12934,571521
12936,571225
12938,572542
12941,572156
12943,572594
12945,572095
12948,573165
12950,572844
12952,573328
12955,572769
12957,572592
12959,573519
12962,573976
12964,573377
12966,573177
12969,574458
12972,574594
12974,573941
12977,573774
12979,575088
12981,574702
12984,574505
12986,574383
12988,575614
12991,575228
12993,575753
12995,575023
12997,576198
13000,575780
13002,576245
13004,575542
13007,575367
13009,576310
13011,576756
13015,576084
13017,575908
13019,577104
13022,577237
13024,576533
13026,576393
13029,577618
13031,577222
13033,576985
13036,576861
13038,578084
13040,577676
13043,578162
13045,577485
13047,578594
13050,578179
13052,578619
13054,577956
13058,577817
13060,578683
13062,579155
13065,578421
13067,578399
13069,579569
13072,579771
13074,578983
13076,578953
13078,580228
13081,579825
13083,579626
13085,579625
13088,580812
13090,580407
13092,580979
13095,580189
13097,581219
13100,580856
13103,581396
13105,580505
13107,580541
13110,580944
13112,581255
13114,580344
13117,580321
13119,580784
13121,580382
13124,579303
13126,579063
13128,579180
13131,578474
13133,578422
13135,576850
13138,576701
13140,575883
13143,575749
13146,574311
13148,573615
13150,572737
13153,572574
13155,571150
13157,570799
13160,569506
13162,569307
13164,567852
13166,567639
13169,567107
13171,566273
13173,564940
13176,564803
13178,564239
13180,563654
13184,563581
13186,562431
13188,561883
13191,561430
13193,561513
13195,560431
13198,560166
13200,559725
13202,559958
13205,558860
13207,559224
13209,558570
13212,558867
13214,557985
13216,558412
13219,558014
13221,558295
13223,557437
13227,558014
13229,557718
13231,557674
13234,558154
13236,557999
13238,557724
13241,557770
13243,558376
13245,557642
13248,558061
13250,558150
13252,558726
13254,558068
13257,558806
13259,558700
13261,559352
13264,558695
13266,559456
13268,559274
13272,560011
13274,559374
13276,560142
13279,559974
13281,560105
13283,560753
13286,560853
13288,560685
13290,560901
13293,561520
13295,560859
13297,561409
13300,561576
13302,562155
13304,561553
13307,562285
13309,562274
13312,562857
13315,562195
13317,563018
13319,562769
13322,563582
13324,562906
13326,563672
13329,563481
13331,563673
13333,564295
13336,564491
13338,564334
13340,564547
13342,565172
13345,564512
13347,565191
13349,565538
13352,565974
13355,565380
13357,566301
13360,566437
13362,566741
13364,566205
13367,567053
13369,566793
13371,567288
13374,566732
13376,567571
13378,567291
13381,567763
13383,567721
13385,567976
13388,567690
13390,568142
13392,567918
13395,567385
13398,567824
13400,568344
13403,567980
13405,567449
13407,568284
13410,568362
13412,567946
13414,567403
13417,568155
13419,567769
13421,568268
13424,567160
13426,567948
13428,567525
13430,568078
13433,567424
13435,567676
13437,567279
13441,567888
13443,567120
13445,566715
13448,567070
13450,567648
13452,566907
13455,566467
13457,567324
13459,567561
13462,566717
13464,566328
13466,567179
13469,566794
13471,567475
13473,566262
13476,567183
13478,566788
13480,567498
13484,566623
13486,567262
13488,566920
13491,567715
13493,566846
13495,566642
13498,567183
13500,568034
13502,567118
13505,566913
13507,567853
13509,568362
13512,567543
13514,567286
13516,568304
13518,567990
13521,568897
13523,567803
13526,568795
13529,568431
13531,569368
13533,568522
13536,569377
13538,569074
13540,569999
13543,569133
13545,568943
13547,569649
13550,570567
13552,569735
13554,569567
13557,570616
13559,571246
13561,570341
13564,570243
13566,571278
13569,570969
13572,571898
13574,570902
13576,571910
13579,571659
13581,572625
13583,571717
13586,572609
13588,572279
13590,573228
13593,572332
13595,572260
13597,572948
13600,573942
13602,573069
13604,572990
13606,573853
13609,574513
13612,573650
13614,573703
13617,574468
13619,574163
13621,575103
13624,574355
13626,574994
13628,574745
13631,575709
13633,574888
13635,575461
13638,575269
13640,576257
13642,575411
13645,575566
13647,575809
13649,576748
13652,575799
13655,576051
13657,576349
13660,577193
13662,576345
13664,576583
13667,576774
13669,576681
13671,577668
13674,577088
13676,577182
13678,577153
13681,578154
13683,577245
13685,577552
13687,577563
13690,578546
13692,577716
13694,578215
13698,578113
13700,579113
13702,578227
13705,578669
13707,578469
13709,578529
13712,578803
13714,579330
13716,579038
13719,579159
13721,580259
13723,579901
13726,579571
13728,579749
13730,580866
13733,579973
13735,580204
13737,580364
13741,581458
13743,580557
13745,581092
13748,580808
13750,581852
13752,580816
13755,581341
13757,580872
13759,580833
13762,580547
13764,580931
13766,580188
13769,579988
13771,580585
13773,579410
13775,578446
13778,578047
13780,578490
13783,576976
13786,575927
13788,575389
13790,575682
13793,574096
13795,573938
13797,572287
13800,572537
13802,570931
13804,570826
13807,569690
13809,569105
13811,567815
13814,567745
13816,566742
13818,566220
13821,566557
13824,565052
13826,564094
13829,563637
13831,564088
13833,562673
13836,561990
13838,561689
13840,562282
13843,560951
13845,561170
13847,560287
13850,560857
13852,559707
13854,560042
13857,559409
13859,559442
13861,558984
13863,559408
13867,558904
13869,559081
13871,559636
13874,559191
13876,558766
13878,559091
13881,559550
13883,558703
13885,559001
13888,559462
13890,559762
13892,559040
13895,559698
13897,560010
13899,560242
13902,559655
13904,560381
13906,560073
13910,560671
13912,560383
13914,561047
13917,560768
13919,561448
13921,561629
13924,561903
13926,561630
13928,562353
13931,562419
13933,561907
13935,562489
13938,563195
13940,563164
13942,562755
13945,563542
13947,564048
13949,563939
13952,563516
13955,564293
13957,564091
13959,564909
13962,564360
13964,565140
13966,564803
13969,565766
13971,565541
13973,566010
13976,565776
13978,566684
13980,566407
13983,566158
13985,566728
13987,567637
13990,567380
13992,567081
13995,567939
13998,567688
14000,568320
14002,567994
14005,568804
14007,568500
14009,569500
14012,568693
14014,569471
14016,569174
14019,570071
14021,569606
14023,569935
14026,569618
14028,570481
14030,569936
14033,569523
14035,569727
14038,570604
14040,570080
14043,569571
14045,570200
14047,569764
14050,569957
14052,569465
14054,570065
14057,569632
14059,570366
14061,569154
14064,569780
14066,569307
14068,570069
14071,569355
14073,569485
14075,569024
14078,569713
14081,569038
14083,568513
14086,568592
14088,569342
14090,568696
14093,568171
14095,568772
14097,568262
14100,568416
14102,567948
14104,568509
14107,567966
14109,568755
14111,567733
14114,568285
14116,567864
14118,568707
14121,568027
14124,568174
14126,567818
14128,568719
14131,568104
14133,567923
14135,567910
14138,568836
14140,568205
14142,568171
14145,568359
14147,568123
14149,568560
14152,568536
14154,568619
14156,568447
14159,569445
14161,569064
14163,569015
14167,568933
14169,569927
14171,569414
14174,569468
14176,569481
14178,570501
14181,570009
14183,570270
14185,570099
14188,571175
14190,570683
14192,570958
14195,570674
14197,570768
14199,571362
14202,571690
14204,571331
14206,571445
14210,572530
14212,572424
14214,571983
14216,572083
14219,573272
14221,572774
14223,572676
14226,572811
14228,573972
14230,573446
14233,573898
14235,573295
14237,574630
14240,574120
14242,574528
14244,573995
14247,574132
14249,574762
14252,575207
14255,574589
14257,574787
14259,575921
14262,575867
14264,575228
14266,575415
14269,576519
14271,575991
14273,575761
14276,575937
14278,577071
14280,576522
14283,576962
14285,576342
14287,577590
14290,577067
14292,577531
14295,576846
14297,577041
14300,577622
14302,578055
14304,577407
14307,577503
14309,578581
14311,578560
14314,577827
14316,577972
14318,579085
14321,578525
14323,578371
14325,578510
14328,579618
14330,579036
14332,579522
14336,578841
14338,580143
14340,579562
14343,580082
14345,579380
14347,579673
14350,580212
14352,580719
14354,580028
14357,580267
14359,581291
14361,581287
14364,580579
14366,580851
14368,581848
14371,581224
14373,581066
14375,581390
14379,582174
14381,581595
14383,582097
14385,581292
14388,582169
14390,581496
14392,581753
14395,580783
14397,580971
14399,580403
14402,580512
14404,579298
14406,579352
14409,579259
14411,578294
14413,576968
14416,576874
14418,576598
14420,575554
14424,573989
14426,573931
14428,573447
14431,572322
14433,572195
14435,570786
14438,570205
14440,569241
14442,569142
14445,567806
14447,567893
14449,566404
14452,566397
14454,565073
14456,565314
14459,564684
14461,564094
14464,562922
14467,563272
14469,562704
14471,562048
14473,561212
14476,561717
14478,561177
14480,560674
14483,561017
14485,560027
14487,560098
14490,559722
14492,560207
14494,559301
14497,560076
14499,559371
14501,559905
14504,559095
14507,559936
14509,559575
14512,559980
14514,559264
14516,560167
14519,559813
14521,559738
14523,560334
14526,560659
14528,560347
14530,560247
14533,560941
14535,560345
14537,561016
14540,560887
14542,561634
14544,561044
14547,562074
14550,561739
14552,562468
14555,561908
14557,562951
14559,562631
14561,563329
14564,562659
14566,563746
14568,563486
14571,563439
14573,564126
14575,564589
14578,564280
14580,564209
14582,564987
14585,564379
14587,565162
14589,565080
14593,565796
14595,565202
14597,566365
14600,566052
14602,566753
14604,566147
14607,567285
14609,567026
14611,567771
14614,567164
14616,568252
14618,568008
14621,568068
14623,568689
14625,569263
14628,569034
14630,569093
14632,569583
14636,569037
14638,569824
14640,570003
14643,570425
14645,569762
14647,570870
14649,570724
14652,570873
14654,570297
14656,571425
14659,570990
14661,571177
14663,570642
14666,571645
14668,571192
14670,571341
14673,571214
14675,571680
14678,571205
14681,571418
14683,571169
14685,570601
14688,571045
14690,571326
14692,570924
14695,570346
14697,571358
14699,571093
14702,570632
14704,570138
14706,571075
14709,570544
14711,570286
14713,569841
14716,570811
14718,570351
14721,570676
14724,569993
14726,570625
14728,570104
14731,570547
14733,569726
14735,569390
14737,570018
14740,570416
14742,569684
14744,569330
14747,570418
14749,570464
14751,569656
14754,569394
14756,570446
14758,570018
14761,569772
14764,569538
14766,570648
14769,570242
14771,570775
14773,570089
14776,570984
14778,570630
14780,571188
14783,570435
14785,570192
14787,571073
14790,571686
14792,570924
14794,570698
14797,571924
14799,572239
14801,571485
14804,571327
14807,572575
14809,572195
14812,572824
14814,571958
14816,573227
14819,572841
14821,573525
14823,572816
14825,573898
14828,573563
14830,574236
14832,573505
14835,573369
14837,574335
14839,575017
14842,574233
14844,574127
14846,575381
14850,575739
14852,574975
14854,574890
14857,576098
14859,575722
14861,576448
14864,575598
14866,576841
14868,576451
14871,577163
14873,576367
14875,577503
14878,577132
14880,577834
14882,577076
14885,577092
14887,577846
14889,578505
14893,577781
14895,577831
14897,578738
14900,579127
14902,578362
14904,578565
14906,579326
14909,579079
14911,579806
14913,579215
14916,579821
14918,579604
14920,580271
14923,579529
14925,580232
14927,580177
14930,580886
14932,580087
14935,580392
14938,580644
14940,581374
14942,580607
14945,580975
14947,581286
14949,581905
14952,581127
14954,581516
14956,581735
14959,581662
14961,582443
14963,582115
14966,582159
14968,582135
14970,582931
14973,582149
14976,582627
14978,582661
14981,583360
14983,582558
14985,583123
14988,583098
14990,583867
14992,583121
14994,583753
14997,583609
14999,584419
15001,583671
15004,584299
15006,584123
15008,584239
15011,585031
15013,584914
15015,584761
15019,584864
15021,585614
15023,584841
15026,585219
15028,585320
15030,586029
15033,585203
15035,585810
15037,585316
15040,585917
15042,584928
15044,585280
15047,584761
15049,584789
15051,583586
15054,583722
15056,582915
15058,582358
15062,582491
15064,581059
15066,580023
15069,579418
15071,579397
15073,577893
15076,576724
15078,576071
15080,575981
15082,574468
15085,574362
15087,572705
15089,572620
15092,571174
15094,571120
15096,570195
15099,569564
15101,568174
15104,568190
15107,567350
15109,566835
15111,566929
15114,565786
15116,565055
15118,564720
15121,564902
15123,563644
15125,563239
15128,563084
15130,563310
15132,562290
15135,562689
15137,562067
15139,562347
15142,561477
15144,561964
15147,561498
15150,561653
15152,561056
15154,561676
15157,561273
15159,561553
15161,561688
15164,561727
15166,561400
15168,561897
15170,561946
15173,561384
15175,561877
15177,562397
15180,562352
15182,561921
15184,562671
15187,563052
15190,562967
15192,562539
15195,563373
15197,563251
15199,563908
15202,563378
15204,564157
15206,564071
15209,564829
15211,564472
15213,565055
15216,564944
15218,565733
15220,565286
15223,565073
15225,565754
15227,566532
15230,566112
15233,565881
15235,566697
15238,567377
15240,566836
15242,566589
15245,567453
15247,567270
15249,568223
15252,567402
15254,568314
15256,568151
15258,569026
15261,568395
15263,569124
15265,569045
15268,570059
15270,569334
15272,569173
15276,570035
15278,570972
15280,570297
15283,570204
15285,571089
15287,571937
15290,571205
15292,571002
15294,571908
15297,571725
15299,572658
15301,571623
15304,572541
15306,572350
15308,573177
15311,572374
15313,572998
15315,572690
15319,573583
15321,572654
15323,572337
15326,572849
15328,573684
15330,572730
15333,572355
15335,573153
15337,573582
15340,572617
15342,572272
15344,573010
15346,572660
15349,573420
15351,572039
15353,572716
15356,572328
15358,573090
15361,572086
15364,572442
15366,571998
15368,572788
15371,571784
15373,571468
15375,571773
15378,572577
15380,571563
15382,571273
15385,571957
15387,571565
15389,571343
15392,571189
15394,571807
15396,571441
15399,572278
15401,571221
15404,571723
15407,571431
15409,572355
15411,571380
15414,571742
15416,571545
15418,572508
15421,571539
15423,571633
15425,571776
15428,572720
15430,571834
15432,572044
15434,572213
15437,572164
15439,572256
15441,572588
15444,572598
15447,572610
15449,573662
15452,573174
15454,573100
15456,573138
15459,574234
15461,573443
15463,573714
15466,573800
15468,574883
15470,574060
15473,574522
15475,574463
15477,575581
15480,574716
15482,575259
15484,574999
15488,575137
15490,575419
15492,575963
15495,575694
15497,575846
15499,576969
15502,576725
15504,576376
15506,576580
15509,577753
15511,576955
15513,577136
15515,577381
15518,578549
15520,577762
15522,578286
15525,578175
15527,579252
15529,578402
15533,579006
15535,578563
15537,578833
15540,579075
15542,579705
15544,579232
15547,579483
15549,580556
15551,580394
15554,579897
15556,580098
15558,581217
15561,580406
15563,580555
15565,580744
15568,581887
15570,580989
15572,581658
15576,581320
15578,582445
15580,581522
15583,582175
15585,581652
15587,581856
15590,582067
15592,582686
15594,582149
15597,582398
15599,583443
15601,583187
15603,582644
15606,582911
15608,583952
15610,583039
15613,583145
15616,583395
15618,584396
15621,583499
15623,584229
15625,583869
15628,584894
15630,584028
15632,584712
15635,584077
15637,584387
15639,584544
15642,585233
15644,584703
15646,585049
15649,585982
15651,585840
15653,585292
15656,585753
15659,586496
15661,585680
15664,585885
15666,586406
15668,587115
15671,586333
15673,587071
15675,586507
15678,587626
15680,586838
15682,587569
15685,586962
15687,587514
15689,587091
15691,587632
15694,586993
15696,587430
15698,587373
15702,586828
15704,585865
15706,586114
15709,585775
15711,584643
15713,583612
15716,583730
15718,583116
15720,581901
15723,581853
15725,580562
15727,579854
15730,578549
15732,578496
15734,577267
15737,577389
15739,575226
15741,575279
15745,574036
15747,574232
15749,573326
15752,572282
15754,571095
15756,571390
15759,570531
15761,569393
15763,568576
15766,568899
15768,568088
15770,567172
15773,567466
15775,566541
15777,566324
15780,565499
15782,565972
15784,565156
15787,565770
15790,564417
15792,564912
15794,564245
15797,564958
15799,564363
15801,564354
15804,563789
15806,564602
15808,564058
15811,563552
15813,563711
15815,564606
15818,564109
15820,563695
15822,564428
15825,563993
15827,564484
15830,564141
15833,564966
15835,564561
15837,565553
15840,564788
15842,565614
15844,565241
15847,566294
15849,565900
15851,566443
15854,566072
15856,567110
15858,566739
15861,566408
15863,566894
15865,568005
15867,567629
15870,567331
15873,568216
15875,567860
15878,568536
15880,568177
15882,569057
15885,568656
15887,569757
15889,569182
15892,569940
15894,569644
15896,570719
15899,570308
15901,570870
15903,570559
15906,571665
15908,571312
15910,571222
15913,571602
15916,572692
15918,572355
15921,572397
15923,572834
15925,572607
15928,573405
15930,573472
15932,573798
15935,573612
15937,574804
15939,574523
15942,574696
15944,574587
15946,575677
15949,575284
15951,575413
15953,575333
15955,576365
15959,575934
15961,576056
15963,575891
15966,576763
15968,576298
15970,576422
15973,576045
15975,575929
15977,576345
15980,576440
15982,576035
15984,575865
15987,576803
15989,576321
15991,575805
15994,575581
15996,576547
15998,575886
16002,575415
16004,575220
16006,576154
16009,575527
16011,575661
16013,574935
16016,575723
16018,575069
16020,575274
16023,574485
16025,574312
16027,574677
16030,574816
16032,574044
16034,573970
16037,574929
16039,574582
16041,573719
16044,573712
16047,574700
16049,574075
16051,573575
16054,573573
16056,574572
16058,574005
16061,574306
16063,573516
16065,574550
16068,574035
16070,574416
16072,573673
16075,573686
16077,574311
16079,574669
16082,573949
16084,573996
16087,575086
16090,574996
16092,574310
16094,574415
16097,575488
16099,575065
16101,574757
16104,574866
16106,576012
16108,575566
16111,576037
16113,575332
16115,576638
16118,576138
16120,576636
16122,575987
16124,576147
16128,576843
16130,577319
16132,576689
16135,576894
16137,578057
16139,578107
16142,577407
16144,577640
16146,578775
16149,578301
16151,578179
16153,578497
16156,579505
16158,579053
16160,579611
16163,578917
16165,580193
16167,579791
16171,580292
16173,579651
16175,580114
16178,580505
16180,581047
16182,580392
16185,580907
16187,581490
16189,581827
16192,581083
16194,581657
16196,582197
16199,581913
16201,581756
16203,582386
16206,582723
16208,582459
16210,583080
16212,582314
16216,583283
16218,583089
16220,583670
16223,583011
16225,583702
16227,583634
16230,584196
16232,583455
16234,584241
16237,584234
16239,584682
16241,583908
16244,584752
16246,584681
16248,584576
16251,585159
16253,585227
16256,585082
16259,584956
16261,585531
16263,584808
16266,585412
16268,585349
16270,585986
16273,585244
16275,586153
16277,585783
16280,586443
16282,585702
16284,586673
16287,586446
16289,587016
16291,586289
16294,587232
16296,586959
16299,586920
16301,587535
16304,587822
16306,587502
16308,587454
16311,588096
16313,587445
16315,588012
16318,587939
16320,588592
16322,587772
16325,588762
16327,588094
16329,588580
16332,587646
16334,588415
16336,587816
16339,587718
16342,586620
16344,587132
16347,586270
16349,585646
16351,585675
16354,584755
16356,583626
16358,582883
16361,582817
16363,581334
16365,580398
16368,579611
16370,579485
16372,578052
16375,578289
16377,576321
16379,576237
16382,574775
16385,575096
16387,573990
16389,573163
16392,571827
16394,572242
16396,571212
16399,570642
16401,570651
16403,569857
16406,568959
16408,568536
16410,568536
16413,567447
16415,567155
16417,566952
16420,566960
16422,565982
16424,566696
16428,565972
16430,565874
16432,565112
16435,565907
16437,565324
16439,565304
16442,564644
16444,565513
16446,564944
16449,565235
16451,565119
16453,565531
16456,565083
16458,565400
16460,565261
16463,564783
16465,565504
16467,565952
16471,565739
16473,565282
16475,566387
16477,566589
16480,566314
16482,565971
16484,567132
16487,566807
16489,566998
16491,566785
16494,567987
16496,567650
16498,568313
16501,567882
16503,568880
16505,568598
16508,569344
16510,568761
16513,568637
16516,569512
16518,570299
16520,569709
16523,569483
16525,570712
16527,571173
16530,570512
16532,570399
16534,571594
16537,571333
16539,572098
16541,571266
16544,572571
16546,572331
16548,573160
16551,572460
16553,573632
16556,573443
16559,574302
16561,573595
16563,573492
16565,574535
16568,575296
16570,574633
16572,574507
16575,575747
16577,576305
16579,575641
16582,575469
16584,576692
16586,576397
16589,577148
16591,576200
16593,577396
16596,577008
16599,577720
16601,576901
16604,577736
16606,577294
16608,577935
16611,576998
16613,576724
16615,577267
16618,577919
16620,576938
16622,576637
16625,577669
16627,577755
16629,576766
16632,576382
16634,577399
16636,576842
16640,577385
16642,576093
16644,577042
16647,576479
16649,577026
16651,576026
16653,576648
16656,576055
16658,576651
16660,575599
16663,575392
16665,575694
16667,576325
16670,575325
16672,575082
16674,575933
16677,576088
16679,575074
16681,574964
16685,575603
16687,575248
16689,575871
16692,574994
16694,575595
16696,575276
16699,575986
16701,575045
16703,575563
16706,575281
16708,576039
16710,575206
16713,575370
16715,575603
16717,576339
16720,575469
16722,575768
16724,576124
16728,576778
16730,575914
16740,576418
16741,576418
16743,576823
16745,577011
16747,577024
16749,577927
16751,577106
16753,577600
16754,577644
16756,577712
16758,578582
16760,577741
16762,578260
16764,578259
16766,578324
16769,579244
16771,578460
16773,579010
16775,578960
16777,579948
16780,579155
16782,579728
16784,579576
16787,579698
16789,580658
16791,580510
16794,580348
16796,580500
16798,581479
16801,580748
16803,581139
16805,581306
16808,582236
16811,581440
16813,582056
16816,582036
16818,582964
16820,582147
16822,582823
16825,582573
16827,582694
16829,582904
16832,583522
16834,583245
16836,583414
16839,584330
16841,584226
16843,583965
16846,584121
16848,584972
16850,584164
16854,584554
16856,584742
16858,585579
16861,584763
16863,585412
16865,585291
16868,586153
16870,585278
16872,585935
16875,585625
16877,585708
16879,585780
16882,586431
16884,586077
16886,586273
16889,587111
16891,586951
16893,586644
16897,586820
16899,587626
16901,586811
16904,587188
16906,587345
16908,588085
16910,587269
16913,587980
16915,587845
16917,588627
16920,587833
16922,588527
16924,588278
16927,588522
16929,588423
16931,589112
16934,588801
16936,589169
16939,589655
16942,589731
16944,589458
16946,589925
16949,590296
16951,589648
16953,590046
16956,590545
16958,590689
16960,590100
16963,590797
16965,590888
16967,590854
16970,590137
16972,590737
16974,590186
16977,590503
16979,589248
16982,589598
16985,588817
16987,588913
16989,588234
16992,587127
16994,586138
16996,586111
16998,585095
17001,583883
17003,582774
17005,582664
17008,581487
17010,580246
17012,580285
17015,579113
17017,577903
17019,576736
17022,576739
17025,575713
17027,575775
17030,573514
17032,573611
17034,572596
17037,572847
17039,571628
17041,570926
17044,570050
17046,570378
17048,569172
17051,568321
17053,567872
17055,568381
17058,567316
17060,566571
17062,567048
17065,566953
17068,566016
17070,565338
17073,565922
17075,565462
17077,566102
17080,564655
17082,565283
17084,564834
17086,565624
17089,564740
17091,565092
17093,564734
17096,565539
17098,564808
17100,564478
17103,564927
17105,565834
17107,565078
17111,564820
17113,565560
17115,565329
17118,565580
17120,565302
17122,566156
17125,565983
17127,566909
17129,565992
17132,566842
17134,566677
17136,567671
17139,566924
17141,567608
17143,567434
17146,568421
17148,567718
17150,567560
17154,568185
17156,569262
17158,568578
17161,568396
17163,569209
17165,569036
17168,569327
17170,569201
17172,570021
17174,569866
17177,570827
17179,570071
17181,570729
17184,570598
17186,571638
17188,570933
17191,571528
17193,571433
17196,572528
17199,571788
17201,571937
17203,572266
17206,573420
17208,572706
17210,572930
17213,573240
17215,573233
17217,573669
17220,573888
17222,574058
17224,574114
17227,575201
17229,574721
17231,574790
17234,574845
17236,575928
17239,575123
17242,575290
17244,575292
17246,576293
17249,575504
17251,575733
17253,575493
17256,576509
17258,575628
17260,575944
17262,575558
17265,575566
17267,575564
17269,575894
17272,575376
17274,575426
17276,576337
17280,575691
17282,575140
17284,575150
17287,576088
17289,575116
17291,574754
17294,574811
17296,575753
17298,574782
17301,575176
17303,574477
17305,575405
17308,574419
17310,574825
17312,574063
17315,574168
17317,574232
17319,574648
17323,573855
17325,573955
17327,574973
17330,574485
17332,573766
17334,573877
17337,574887
17339,574000
17341,573719
17343,573932
17346,574935
17348,573996
17350,574526
17353,573831
17355,575065
17357,574193
17360,574762
17362,574080
17364,574308
17368,574499
17370,575097
17372,574460
17375,574729
17377,575866
17379,575607
17382,574941
17384,575236
17386,576334
17389,575498
17391,575521
17393,575837
17396,576900
17398,576102
17400,576766
17403,576073
17405,577531
17408,576768
17411,577390
17413,576816
17415,577139
17418,577440
17420,578134
17422,577494
17425,577884
17427,578991
17429,578834
17431,578194
17434,578654
17436,579555
17438,578832
17441,578922
17443,579423
17445,580283
17448,579535
17451,580207
17453,579635
17456,580975
17458,580253
17460,580961
17463,580296
17465,581036
17467,580941
17470,581639
17472,581098
17474,581795
17477,582169
17479,582340
17481,581723
17484,582462
17486,582800
17488,582251
17491,582397
17494,583177
17496,583424
17499,582822
17501,583596
17503,582948
17506,583906
17508,583404
17510,584196
17513,583546
17515,584443
17517,584015
17519,584716
17522,584120
17524,585023
17526,584942
17529,585274
17531,584646
17533,585551
17537,585424
17539,584905
17541,585161
17544,586062
17546,585869
17548,585483
17551,586277
17553,585675
17555,586377
17558,585960
17560,586759
17562,586183
17565,587224
17567,586547
17569,587351
17572,586719
17574,587826
17576,587537
17580,587999
17582,587398
17584,588439
17587,588167
17589,587772
17591,588030
17594,589109
17596,588702
17598,588359
17601,589228
17603,588573
17605,589239
17607,588777
17610,589469
17612,588726
17614,589697
17617,588449
17619,588995
17622,588012
17625,588657
17627,587835
17629,587243
17632,586046
17634,586559
17636,585460
17639,584311
17641,584436
17643,583361
17646,582150
17648,581000
17650,580974
17653,579510
17655,578591
17657,577442
17660,577436
17662,576024
17665,576349
17668,574115
17670,574074
17672,572794
17675,573174
17677,572044
17679,571163
17682,569931
17684,570417
17686,569375
17689,568570
17691,568693
17693,568171
17695,567281
17698,566647
17700,566686
17702,565762
17705,565733
17708,565277
17710,565318
17713,564588
17715,565425
17717,564418
17720,564401
17722,563885
17724,564799
17727,564233
17729,564029
17731,563552
17734,564578
17736,564058
17738,564079
17741,564010
17743,564729
17745,564285
17748,564349
17751,564282
17753,563992
17756,564761
17758,564884
17760,564724
17763,564544
17765,565691
17767,565623
17770,565358
17772,565223
17774,566416
17777,566151
17779,566110
17781,566039
17783,567242
17786,566873
17788,567265
17790,566833
17794,568063
17796,567707
17798,568074
17801,567659
17803,567633
17805,568587
17808,568998
17810,568496
17812,568493
17815,569776
17817,569887
17819,569324
17822,569402
17824,570621
17826,570310
17829,570268
17831,570318
17833,571638
17837,571261
17839,571813
17841,571290
17844,572603
17846,572317
17848,572860
17851,572331
17853,572418
17855,573378
17858,573880
17860,573355
17862,573400
17865,574729
17867,574853
17869,574263
17871,574266
17874,575527
17876,575099
17879,574879
17882,574881
17884,576122
17886,575588
17889,575987
17891,575265
17893,576270
17896,575778
17898,576103
17900,575307
17903,575225
17905,575693
17907,575958
17910,575115
17912,574997
17914,576017
17917,575677
17920,574790
17922,574699
17925,575618
17927,575004
17929,575273
17932,574287
17934,575198
17936,574615
17939,574820
17941,573900
17943,574694
17946,574075
17948,574354
17950,573478
17952,573451
17955,573682
17957,573921
17959,573007
17963,573164
17965,573741
17967,573614
17970,572747
17972,572955
17974,573481
17977,573148
17979,573465
17981,572992
17984,573354
17986,573045
17988,573458
17991,572707
17993,573397
17995,573150
17998,573584
18000,572788
18002,573323
18006,573346
18008,573847
18010,573148
18013,573721
18015,573887
18017,574304
18020,573612
18022,574193
18024,574269
18027,574179
18029,574776
18031,574762
18034,574756
18036,574701
18038,575361
18040,574667
18043,575339
18045,575375
18048,575973
18051,575258
18053,576103
18055,575978
18058,576624
18060,575978
18062,576863
18065,576650
18067,577355
18069,576658
18072,577601
18074,577379
18076,577443
18079,578098
18081,578378
18083,578154
18086,578208
18088,578808
18091,578182
18094,578852
18096,578932
18098,579580
18101,578898
18103,579812
18105,579656
18108,580367
18110,579659
18112,580566
18115,580227
18117,580909
18119,580251
18122,581207
18124,580886
18126,580957
18128,581587
18131,581822
18134,581524
18136,581521
18139,582218
18141,581449
18143,582077
18146,582136
18148,582746
18150,582048
18153,582993
18155,582742
18157,583336
18160,582678
18162,583581
18164,583282
18167,583922
18169,583210
18171,584155
18174,583828
18177,583874
18179,584488
18182,584705
18184,584346
18186,584456
18189,584987
18191,584298
18193,584995
18196,585181
18198,585634
18200,584932
18203,585946
18205,585880
18207,586239
18210,585568
18212,586596
18214,586263
18216,586560
18220,586196
18222,587234
18224,586836
18227,587160
18229,587194
18231,587636
18234,587167
18236,587446
18238,587331
18241,586657
18243,586818
18245,586972
18248,586541
18250,585691
18252,586342
18255,585442
18257,584615
18259,583579
18263,584025
18265,582970
18267,582825
18270,580537
18272,580793
18274,579667
18277,579532
18279,578268
18281,577439
18284,576290
18286,576184
18288,574878
18291,573765
18293,572988
18295,572952
18298,571595
18300,570624
18302,571065
18305,570096
18308,568837
18310,567913
18312,568422
18315,567511
18317,567764
18319,565674
18322,566338
18324,565519
18326,565856
18329,564600
18331,564743
18333,564060
18336,564506
18338,563380
18340,562877
18343,563135
18345,563717
18348,562702
18351,562244
18353,563214
18355,563327
18358,562357
18360,562047
18362,563122
18365,562620
18367,563355
18369,562189
18372,563275
18374,562881
18376,563682
18379,562835
18381,563745
18383,563404
18386,564292
18388,563465
18391,563267
18393,564110
18396,564966
18398,564146
18400,563991
18403,565190
18405,565810
18407,565015
18410,564924
18412,566102
18414,565829
18417,566763
18419,565812
18421,566996
18424,566757
18426,567648
18428,566873
18432,567996
18434,567669
18436,568556
18439,567795
18441,567745
18443,568676
18446,569611
18448,568844
18450,568822
18453,570003
18455,570643
18457,569918
18460,569938
18462,570989
18464,570780
18467,571804
18469,571111
18471,572051
18475,571873
18477,572878
18479,572133
18481,573051
18484,572915
18486,573919
18488,573088
18491,573312
18493,573773
18495,574710
18498,573891
18500,574127
18502,574597
18505,574380
18507,574369
18509,574601
18512,574862
18514,574656
18516,575484
18520,574662
18522,574764
18524,574577
18527,575347
18529,574365
18531,574538
18534,574335
18536,575052
18538,574053
18541,574324
18543,573903
18545,574678
18548,573624
18550,573944
18552,573661
18555,573495
18557,573190
18560,573449
18562,573103
18565,572981
18567,573740
18569,573061
18572,572661
18574,572510
18576,573334
18579,572255
18581,572214
18583,572125
18586,572958
18588,571991
18590,572397
18593,571950
18595,572818
18597,571792
18600,572239
18603,571840
18605,571800
18608,571685
18610,572216
18612,571847
18615,571823
18617,572707
18619,572339
18622,572058
18624,572065
18626,573012
18629,572128
18631,572382
18633,572486
18636,573373
18638,572477
18640,573102
18643,572883
18646,573805
18648,572982
18650,573624
18653,573361
18655,573441
18657,573528
18660,574225
18662,573872
18664,574034
18667,575032
18669,574860
18671,574562
18674,574744
18676,575613
18678,574855
18681,575317
18683,575505
18685,576486
18689,575626
18691,576283
18693,576288
18696,577243
18698,576399
18700,577046
18703,576806
18705,577097
18707,577157
18710,577906
18712,577591
18714,577844
18717,578658
18719,578576
18721,578321
18724,578666
18726,579274
18728,578632
18732,579012
18734,579454
18736,579950
18738,579201
18741,579978
18743,580195
18745,580562
18748,579952
18750,580748
18752,580377
18755,580913
18757,580547
18759,581307
18762,580974
18764,581612
18766,581751
18769,581941
18771,581603
18774,582244
18777,582218
18779,581696
18781,582146
18784,582851
18786,582696
18788,582187
18791,583052
18793,582709
18795,583193
18798,582787
18800,583563
18802,583255
18805,584089
18807,583334
18809,584148
18812,583777
18814,584667
18817,584245
18820,584705
18822,584366
18824,585247
18826,584819
18829,584418
18831,585005
18833,585932
18836,585442
18838,585105
18840,585954
18843,585631
18845,586035
18847,585697
18850,586463
18852,586119
18854,587052
18857,585989
18860,586699
18862,586216
18865,586970
18867,586191
18869,586065
18872,585438
18874,585971
18876,584852
18879,583959
18881,583269
18883,583567
18886,582269
18888,581142
18890,581249
18893,580094
18895,578851
18897,577698
18900,577661
18903,576463
18905,576611
18908,574073
18910,574059
18912,572896
18914,573073
18917,571692
18919,570629
18921,569549
18924,569798
18926,568499
18928,567464
18931,566603
18933,566993
18935,565760
18938,564845
18940,565036
18942,564188
18946,563531
18948,562765
18950,563075
18953,562346
18955,562878
18957,561280
18960,561686
18962,560985
18964,561714
18967,560777
18969,560761
18971,560261
18974,561041
18976,560208
18978,559943
18981,559942
18983,560796
18985,560008
18989,559902
18991,560168
18993,559902
18996,560205
18998,560197
19000,560370
19002,560203
19005,561228
19007,560743
19009,560834
19012,560781
19014,561746
19016,561151
19019,561334
19021,561361
19023,562462
19026,561894
19028,562204
19031,562206
19034,563267
19036,562722
19038,563055
19041,562919
19043,562979
19045,563581
19048,563966
19050,563719
19052,563842
19055,564980
19057,564839
19059,564573
19062,564718
19064,565828
19066,565266
19069,565371
19072,565533
19074,566666
19077,566144
19079,566642
19081,566181
19084,567659
19086,567085
19088,567681
19090,567178
19093,567445
19095,568101
19097,568644
19100,568167
19102,568474
19104,569627
19107,569690
19109,569126
19111,569403
19115,570621
19117,570024
19119,569968
19122,570214
19124,571299
19126,570645
19129,571155
19131,570538
19133,571804
19136,571116
19138,571567
19140,570904
19143,571031
19145,571326
19147,571804
19150,570968
19152,571062
19154,572154
19158,571702
19160,570869
19162,570967
19165,571945
19167,571139
19169,570630
19171,570719
19174,571662
19176,570765
19178,571152
19181,570337
19183,571253
19185,570420
19188,570781
19190,569932
19192,570003
19195,570081
19197,570395
19200,569567
19203,569736
19205,570613
19207,570157
19210,569286
19212,569501
19214,570300
19217,569471
19219,569103
19221,569363
19224,570181
19226,569382
19228,569827
19231,569085
19233,570090
19235,569337
19238,569867
19240,569142
19243,569578
19246,569448
19248,570075
19250,569358
19253,569848
19255,570342
19257,570375
19259,569660
19262,570302
19264,570741
19266,570182
19269,570131
19271,570848
19273,571152
19276,570716
19278,571341
19280,570694
19283,571615
19286,571237
19288,571922
19291,571343
19293,572156
19295,571896
19298,572687
19300,572028
19302,572976
19305,572986
19307,573421
19309,572848
19312,573738
19314,573709
19316,573365
19319,573494
19321,574514
19323,574369
19326,574108
19329,574850
19331,574180
19334,575106
19336,574859
19338,575646
19341,575061
19343,576081
19345,575594
19348,576368
19350,575782
19352,576793
19354,576477
19357,577105
19359,576442
19361,577544
19364,577221
19366,576955
19368,577789
19372,578242
19374,577926
19376,577645
19379,578406
19381,577862
19383,578587
19386,578358
19388,579165
19390,578535
19393,579634
19395,578949
19397,579757
19400,579138
19402,580205
19404,579798
19407,580348
19409,579654
19411,580759
19415,580391
19417,580133
19419,580896
19422,581303
19424,580963
19426,580685
19429,581480
19431,580773
19433,581524
19435,581264
19438,581981
19440,581351
19442,582455
19445,581853
19447,582637
19449,581955
19452,583132
19454,582789
19457,583294
19460,582622
19462,583783
19464,583387
19467,583216
19469,583966
19471,584388
19474,584039
19476,583944
19478,584587
19481,583878
19483,584599
19485,584432
19488,584923
19490,584242
19492,585237
19495,584425
19497,584569
19500,583753
19503,584533
19505,583780
19507,583082
19510,582097
19512,582619
19514,581571
19517,581031
19519,580420
19521,579605
19523,578456
19526,577717
19528,576839
19530,575651
19533,574811
19535,574126
19537,573195
19540,572017
19543,572361
19545,570599
19548,569609
19550,568548
19552,568994
19555,567827
19557,566366
19559,565410
19562,566035
19564,564942
19566,564644
19569,563615
19571,563513
19573,562623
19576,562428
19578,561504
19580,560738
19584,560697
19586,560761
19588,559825
19591,559291
19593,560219
19595,559669
19598,558802
19600,558323
19602,559362
19605,558865
19607,559089
19609,557943
19611,558990
19614,558513
19616,558868
19618,558165
19621,559042
19623,558628
19625,559020
19629,558375
19631,558248
19633,559042
19636,559467
19638,558863
19640,558777
19643,560008
19645,560223
19647,559532
19650,559413
19652,560727
19654,560395
19657,560927
19659,560268
19661,561556
19664,561270
19666,561769
19668,561213
19672,562449
19674,562136
19676,562755
19679,562110
19681,562018
19683,563099
19686,563639
19688,563075
19690,563047
19693,564286
19695,564571
19697,563962
19699,563922
19702,565251
19704,564979
19706,565468
19709,564959
19712,566280
19714,565992
19717,566611
19719,565985
19721,567364
19724,567073
19726,567656
19728,567116
19731,567245
19733,568249
19735,568823
19738,568240
19740,568405
19742,569519
19745,569825
19747,569213
19749,569478
19752,570280
19755,570051
19757,570597
19760,570164
19762,570852
19764,570590
19767,571102
19769,570417
19771,571130
19774,570871
19776,571297
19778,570497
19780,570670
19783,570843
19785,571159
19787,570324
19790,570599
19792,570803
19794,570900
19798,570053
19800,570373
19802,570407
19805,570130
19807,570505
19809,569906
19812,569855
19814,569610
19816,570006
19819,569090
19821,569401
19823,569175
19826,569548
19828,568682
19830,569018
19833,568653
19835,569018
19837,568219
19841,568711
19843,568403
19845,568757
19848,567879
19850,568460
19852,568159
19855,568054
19857,568540
19859,568363
19862,568066
19864,568019
19866,568496
19868,567710
19871,568051
19873,568062
19875,568619
19878,567880
19880,568563
19883,568287
19886,568880
19888,568220
19890,568927
19893,568645
19895,568636
19897,568582
19900,569281
19902,569075
19904,569151
19907,569797
19909,569857
19911,569601
19914,569735
19916,570342
19918,569700
19921,570253
19923,570388
19926,571051
19929,570357
19931,571220
19933,571055
19936,571794
19938,571109
19940,571939
19943,571747
19945,571875
19947,571862
19950,572683
19952,572485
19954,572622
19956,573305
19959,573495
19961,573229
19963,573370
19966,573986
19969,573412
19971,574018
19974,574183
19976,574788
19978,574179
19981,575033
19983,574995
19985,575510
19988,574892
19990,575791
19992,575529
19995,575759
19997,575638
19999,576492
20002,576222
20004,576555
20006,576870
20009,577182
20012,576911
20014,577338
20017,577449
20019,576928
20021,577520
20024,578001
20026,577990
20028,577515
20031,578446
20033,578664
20035,578555
20038,578077
20040,579035
20042,578730
20044,579313
20047,578637
20049,579616
20051,579290
20055,579926
20057,579571
20059,580211
20062,579920
20064,580620
20066,580178
20069,579852
20071,580574
20073,581339
20076,580773
20078,580495
20080,581520
20083,581994
20085,581457
20087,581177
20090,582252
20092,582009
20094,582791
20098,581883
20100,582972
20102,582665
20105,583478
20107,582691
20109,583480
20112,583052
20114,583863
20116,582911
20119,582576
20121,582883
20123,583491
20126,582303
20128,581767
20130,582344
20132,581963
20135,580586
20137,579699
20140,580122
20143,579088
20145,579232
20147,576673
20150,576917
20152,575749
20154,575819
20157,574079
20159,573352
20161,572186
20164,572231
20166,570593
20168,569588
20171,568714
20173,568841
20175,567236
20178,566219
20180,566588
20183,565575
20186,564256
20188,563450
20190,563860
20193,562933
20195,563275
20197,561037
20200,561578
20202,560773
20204,561236
20207,559967
20209,559960
20211,559284
20214,559826
20216,558623
20218,558167
20220,558265
20224,558952
20226,557818
20228,557442
20231,558289
20233,557770
20235,557435
20238,557186
20240,558076
20242,557616
20245,558442
20247,557341
20249,558201
20252,557881
20254,558758
20256,557879
20259,558570
20261,558316
20263,559254
20267,558422
20269,558640
20271,559114
20274,560060
20276,559253
20278,559437
20281,560029
20283,559847
20285,560086
20288,560387
20290,560850
20292,560749
20295,561791
20297,561341
20299,561620
20302,561711
20304,562809
20306,561977
20308,562676
20312,562710
20314,563793
20316,563047
20319,563508
20321,563742
20323,564838
20326,564144
20328,564660
20330,564756
20333,564957
20335,565351
20337,565881
20340,565907
20342,566094
20344,567201
20347,567144
20349,567140
20352,567341
20355,568471
20357,567796
20359,568293
20362,568539
20364,569612
20366,568895
20369,569563
20371,569481
20373,570598
20376,569805
20378,570389
20380,570114
20383,570247
20385,570361
20387,570849
20389,570571
20392,570497
20395,571486
20397,570988
20400,570540
20402,570482
20404,571323
20407,570325
20409,570274
20411,570216
20414,571078
20416,569959
20418,570397
20421,569777
20423,570540
20425,569439
20428,569815
20430,569266
20432,569231
20435,568861
20438,569242
20440,568660
20443,568577
20445,569336
20447,568661
20450,568059
20452,567918
20454,568717
20457,567627
20459,567433
20461,567374
20464,568215
20466,567187
20468,567653
20471,567100
20473,567858
20475,566808
20477,567346
20481,566814
20483,566823
20485,566662
20488,567220
20490,566744
20492,566879
20495,567688
20497,567285
20499,566811
20502,566988
20504,567815
20506,566834
20509,567061
20511,567354
20513,567955
20516,567185
20518,567785
20520,567503
20524,568308
20526,567564
20528,568226
20531,567845
20533,568284
20535,568059
20538,568719
20540,568370
20542,568952
20545,569282
20547,569369
20549,569028
20552,569618
20554,569883
20556,569276
20559,569701
20561,570389
20563,570475
20566,569981
20569,570733
20571,570443
20573,571171
20576,570719
20578,571493
20580,571193
20583,571965
20585,571391
20587,572228
20590,571930
20592,572730
20594,572579
20597,572917
20599,572665
20601,573558
20604,573317
20606,572902
20609,573441
20612,574312
20614,573985
20616,573592
20619,574405
20621,574084
20623,574665
20626,574262
20628,575100
20630,574797
20633,575761
20635,575004
20637,575796
20640,575508
20642,576430
20644,575959
20647,576451
20649,576154
20652,577071
20654,576631
20657,576322
20659,576834
20661,577748
20664,577298
20666,576929
20668,577762
20671,577458
20673,577929
20675,577577
20678,578387
20680,578109
20682,579113
20685,578248
20687,579065
20689,578820
20692,579828
20695,579326
20697,579804
20700,579519
20702,580493
20704,580051
20707,579642
20709,580126
20711,581065
20714,580469
20716,580097
20718,580813
20721,580364
20723,580520
20725,579967
20728,580498
20730,579864
20732,580453
20736,578770
20738,579007
20740,578113
20742,578494
20745,577233
20747,576212
20749,575183
20752,575398
20754,574042
20756,573005
20759,572803
20761,571832
20763,570427
20766,569428
20768,569116
20770,568028
20773,566897
20775,565981
20777,565594
20781,564600
20783,564879
20785,562937
20788,562442
20790,561625
20792,561879
20795,560774
20797,559731
20799,559070
20802,559554
20804,558445
20806,558015
20809,557551
20811,557676
20813,556742
20816,556464
20818,555998
20820,555640
20824,555539
20826,555475
20828,554991
20830,554773
20833,555615
20835,554902
20837,554459
20840,554385
20842,555343
20844,554600
20847,554401
20849,554415
20851,555381
20854,554804
20856,555121
20858,554661
20861,555802
20864,555278
20866,555711
20869,555149
20871,555351
20873,555956
20876,556397
20878,555909
20880,556044
20883,557236
20885,557234
20887,556719
20890,556910
20892,558082
20894,557606
20897,557609
20899,557869
20901,558991
20904,558555
20907,559058
20909,558504
20912,559890
20914,559406
20916,559969
20918,559417
20921,559673
20923,560378
20925,560961
20928,560477
20930,560733
20932,561929
20935,562075
20937,561496
20939,561786
20942,563058
20944,562572
20946,562622
20950,562973
20952,564218
20954,563766
20957,564413
20959,563848
20961,565420
20964,564974
20966,565533
20968,564974
20971,565282
20973,565902
20975,566509
20978,565881
20980,566147
20982,567266
20985,567193
20987,566505
20989,566704
20993,567726
20995,567102
20997,566793
20999,566902
21002,567827
21004,567163
21006,567535
21009,566733
21011,567752
21013,567052
21016,567353
21018,566502
21020,566730
21023,566685
21025,567017
21027,566184
21030,566407
21032,566908
21035,566642
21038,565745
21040,566070
21042,566423
21045,565809
21047,566158
21049,565640
21052,565886
21054,565272
21056,565702
21059,564861
21061,565432
21063,564968
21066,565352
21068,564492
21070,565030
21073,564683
21075,565118
21078,564379
21081,564910
21083,564881
21085,565022
21087,564235
21090,564940
21092,564867
21094,564529
21097,565059
21099,565106
21101,565000
21104,564690
21106,565312
21108,564578
21111,565247
21113,565036
21115,565678
21118,564981
21121,565883
21123,565468
21126,566133
21128,565496
21130,566411
21133,566167
21135,566703
21137,566057
21140,567076
21142,566861
21144,566666
21147,567414
21149,567794
21151,567467
21154,567386
21156,568039
21158,567475
21161,568218
21164,568148
21166,568840
21169,568263
21171,569311
21173,568917
21175,569662
21178,569043
21180,570062
21182,569796
21185,570442
21187,569847
21189,570818
21192,570585
21194,570440
21196,571185
21199,571639
21201,571361
21203,571205
21207,571919
21209,571274
21211,572031
21214,571947
21216,572656
21218,571981
21221,573084
21223,572654
21225,573337
21228,572697
21230,573728
21232,573369
21235,573926
21237,573286
21239,574333
21242,573960
21244,573885
21246,574598
21250,574993
21252,574638
21254,574530
21257,575161
21259,574487
21261,575203
21263,575174
21266,575749
21268,575126
21270,576151
21273,575775
21275,576218
21277,575640
21280,576739
21282,576378
21284,576807
21287,576270
21289,577360
21292,577003
21295,577148
21297,577384
21299,577986
21302,577620
21304,577896
21306,577941
21309,577514
21311,578357
21313,578613
21316,578546
21318,578115
21320,579251
21323,579238
21325,579041
21327,578670
21330,579813
21332,579243
21335,579524
21338,578615
21340,579659
21342,579034
21345,579164
21347,578467
21349,578482
21351,577624
21354,577532
21356,576412
21358,575454
21361,574857
21363,574546
21365,573224
21368,572153
21370,572504
21372,570878
21376,569460
21378,568281
21380,568580
21383,567357
21385,566995
21387,564437
21390,564837
21392,563644
21394,563410
21397,561898
21399,561395
21401,560261
21404,560078
21406,558712
21408,557801
21411,557429
21413,557406
21415,556064
21419,555304
21421,556027
21423,555176
21426,554007
21428,553375
21430,554163
21433,553413
21435,553686
21437,552031
21439,552890
21442,552236
21444,552560
21446,551568
21449,552216
21451,551618
21453,552041
21456,551127
21458,550826
21460,551444
21464,551897
21466,551095
21468,550902
21471,552052
21473,552181
21475,551432
21478,551266
21480,552337
21482,552081
21485,552631
21487,551891
21498,552548
21499,553759
21500,553759
21502,553451
21505,553994
21507,553341
21509,553306
21511,554472
21513,554219
21515,554746
21517,554140
21519,554110
21520,555276
21522,554951
21524,555566
21526,554924
21528,554992
21530,556027
21532,555733
21534,556325
21537,555847
21539,556719
21541,556485
21544,557139
21547,556482
21549,557493
21552,557350
21554,558007
21556,557341
21559,557589
21561,558128
21563,558858
21566,558186
21568,558604
21570,559131
21573,559860
21575,559233
21577,559661
21580,560118
21582,560101
21584,560878
21587,560719
21590,561059
21592,561057
21595,561746
21597,561092
21599,561794
21602,561789
21604,562443
21606,561721
21608,562187
21611,562254
21613,562865
21615,562089
21618,562503
21620,562486
21622,562439
21625,562198
21627,562693
21629,562495
21633,562401
21635,562947
21637,562484
21640,562345
21642,562253
21644,562735
21647,561863
21649,561980
21651,561928
21654,562419
21656,561547
21658,561965
21661,561533
21663,562008
21665,561168
21668,561589
21670,561238
21672,561179
21676,560844
21678,561285
21680,560901
21683,560916
21685,561378
21687,561011
21690,560703
21692,560661
21694,561177
21696,560322
21699,560513
21701,560483
21703,561058
21706,560254
21708,560885
21710,560608
21713,561191
21715,560410
21718,560955
21721,560722
21723,560820
21725,560660
21728,561282
21730,560997
21732,561095
21735,561722
21737,561652
21739,561420
21742,561511
21744,562144
21746,561460
21749,561914
21751,562103
21753,562679
21756,562009
21758,562688
21761,562663
21764,563276
21766,562592
21768,563325
21771,563141
21773,563393
21775,563305
21778,564027
21780,563876
21782,564206
21784,564613
21787,564759
21789,564608
21791,565000
21794,565328
21796,564790
21798,565371
21801,565848
21804,566079
21806,565558
21809,566288
21811,566684
21813,566709
21816,566316
21818,567099
21820,566905
21823,567544
21825,567053
21827,567831
21830,567657
21832,568244
21834,568057
21837,568553
21839,568354
21841,569040
21844,568770
21847,568382
21849,569122
21852,569786
21854,569359
21856,568980
21859,569874
21861,570425
21863,569930
21866,569649
21868,570451
21870,570252
21872,570986
21875,570155
21877,571082
21879,570798
21882,571602
21884,570991
21886,571627
21890,571401
21892,572200
21894,571543
21897,571258
21899,571906
21901,572805
21904,572085
21906,571907
21908,572782
21911,572572
21913,572694
21915,572536
21918,573433
21920,573210
21922,574166
21925,573129
21927,574128
21929,573936
21933,574873
21935,574097
21937,574815
21940,574598
21942,575592
21944,574741
21947,574596
21949,575228
21951,576103
21954,575285
21956,575013
21958,575855
21960,575513
21963,575307
21965,574922
21967,575532
21970,575076
21972,575629
21975,573749
21978,574063
21980,573285
21982,573629
21985,572089
21987,571411
21989,570444
21992,570550
21994,568882
21996,567879
21999,566871
22001,566942
22003,565198
22006,564166
22008,564199
22010,563136
22013,561486
22016,560584
22018,560601
22021,559624
22023,559709
22025,557245
22028,557371
22030,556365
22032,556634
22035,555096
22037,554537
22039,553722
22042,554050
22044,552729
22046,552252
22048,551677
22051,552201
22053,550937
22055,550585
22059,550688
22061,550233
22063,549653
22066,549518
22068,549572
22070,549249
22073,549998
22075,548960
22077,548946
22080,548812
22082,549618
22084,548693
22087,548889
22089,548803
22091,549756
22094,548823
22096,549123
22098,549078
22102,550048
22104,549190
22106,549572
22109,549508
22111,549577
22113,549813
22116,550244
22118,550126
22120,550280
22123,551348
22125,551089
22127,550896
22130,551118
22132,552136
22134,551386
22136,551736
22139,551950
22141,553012
22144,552242
22147,552820
22149,552749
22151,553912
22154,553154
22156,553742
22158,553359
22161,553567
22163,553948
22165,554620
22168,554248
22170,554482
22172,555609
22175,555538
22177,555179
22179,555395
22182,556550
22184,555841
22187,556163
22190,556447
22192,557594
22194,556885
22197,557604
22199,557245
22201,558702
22204,558049
22206,558701
22208,558421
22211,558700
22213,559030
22215,559691
22217,559301
22220,559575
22222,560649
22224,560453
22227,560025
22230,560251
22232,561291
22235,560442
22237,560522
22239,560591
22242,561582
22244,560664
22246,561179
22249,560572
22251,561575
22253,560605
22256,561078
22258,560439
22260,560493
22263,560364
22265,560759
22267,560128
22270,560159
22273,561012
22275,560370
22278,559713
22280,559816
22282,560523
22285,559434
22287,559258
22289,559343
22292,560000
22294,558889
22296,559403
22299,558699
22301,559445
22303,558467
22305,558912
22308,558324
22310,558580
22312,558085
22316,558621
22318,558030
22320,558429
22323,558719
22325,558472
22327,557904
22330,558336
22332,558609
22334,557827
22337,557913
22339,558422
22341,558616
22344,557970
22346,558548
22348,558100
22351,558798
22353,558160
22355,558845
22359,558401
22361,559131
22363,558593
22366,559323
22368,558878
22370,559610
22373,559575
22375,559863
22377,559431
22380,560269
22382,560138
22384,559685
22387,560094
22389,560964
22391,560801
22393,560357
22396,561199
22398,560842
22401,561511
22404,561151
22406,561909
22408,561579
22411,562494
22413,561959
22415,562777
22418,562412
22420,563369
22422,563080
22425,563527
22427,563217
22429,564197
22432,563817
22434,563516
22436,564321
22439,564974
22441,564615
22444,564283
22447,565102
22449,564754
22451,565434
22454,565041
22456,565858
22458,565488
22461,566488
22463,565771
22465,566584
22468,566239
22470,567184
22472,566810
22475,567222
22477,566962
22479,567891
22481,567491
22484,567127
22487,567915
22489,568530
22492,568080
22494,567751
22496,568484
22499,568145
22501,568636
22503,568315
22506,569086
22508,568682
22510,569673
22513,568891
22515,569654
22517,569284
22520,570248
22522,569865
22524,570293
22528,569881
22530,570921
22532,570522
22535,570194
22537,570849
22539,571570
22542,571157
22544,570943
22546,571532
22549,571274
22551,571827
22553,571658
22556,572174
22558,571910
22560,572853
22563,572294
22565,572600
22567,572367
22569,573353
22573,572852
22575,572759
22577,572391
22580,573240
22582,572561
22584,572222
22587,572011
22589,572118
22591,571173
22594,570693
22596,570068
22598,569311
22601,568575
22603,567990
22605,567098
22608,566275
22610,566585
22612,564642
22616,563569
22618,562718
22620,562870
22623,561686
22625,559957
22627,559132
22630,559451
22632,558182
22634,557667
22637,556562
22639,556165
22641,555031
22644,554625
22646,553510
22648,552896
22651,552298
22653,552041
22656,551029
22658,550580
22661,551198
22663,550100
22665,549108
22668,548815
22670,549532
22672,548736
22675,547752
22677,547604
22679,548390
22682,547729
22684,547869
22686,547033
22689,547818
22691,547230
22693,547472
22696,546752
22699,546736
22701,547136
22704,547456
22706,546779
22708,546882
22711,547894
22713,547823
22715,547213
22718,547390
22720,548373
22722,547982
22725,547816
22727,548006
22729,549111
22732,548713
22734,549212
22736,548635
22739,549925
22742,549531
22744,549998
22746,549461
22749,549690
22751,550368
22753,550911
22756,550354
22758,550587
22760,551734
22763,551814
22765,551217
22767,551545
22770,552649
22772,552220
22774,552769
22777,552439
22779,553552
22781,553230
22785,553765
22787,553162
22789,554619
22792,554254
22794,554840
22796,554249
22799,554673
22801,555397
22803,556045
22806,555515
22808,555989
22810,556971
22813,557280
22815,556718
22817,557273
22820,558084
22822,557831
22824,558413
22827,558373
22830,558962
22832,558700
22834,559336
22837,558681
22839,559665
22841,559453
22844,559886
22846,559198
22848,559787
22851,559722
22853,560150
22855,559405
22858,559919
22860,560036
22862,560166
22865,559322
22867,559857
22870,559858
22873,559510
22875,559893
22877,559641
22880,559415
22882,559111
22884,559465
22887,558635
22889,558975
22891,558684
22894,559082
22896,558186
22898,558840
22901,558188
22903,558612
22905,557729
22908,558377
22910,557990
22913,558183
22916,557338
22918,558036
22920,557656
22922,557460
22925,557889
22927,557911
22929,557527
22932,557350
22934,557843
22936,557130
22939,557526
22941,557383
22943,557883
22946,557185
22948,558012
22950,557520
22953,558087
22956,557342
22958,558190
22961,557824
22963,558346
22965,557687
22968,558583
22970,558220
22972,558176
22975,558787
22977,559087
22979,558770
22982,558738
22984,559389
22986,558762
22989,559446
22991,559409
22993,560081
22996,559458
22999,560464
23001,560133
23003,560868
23006,560226
23008,561261
23010,560926
23013,560923
23015,560995
23017,562057
23020,561714
23022,561768
23024,562462
23027,562834
23029,562607
23031,562699
23034,563306
23036,562705
23038,563450
23042,563569
23044,564180
23046,563567
23049,564638
23051,564455
23053,564924
23056,564418
23058,565499
23060,565202
23063,565334
23065,565185
23067,566233
23070,565869
23072,566156
23074,566407
23077,566975
23079,566628
23081,566922
23085,567154
23087,566586
23089,567335
23091,567682
23094,567711
23096,567240
23098,568313
23101,568337
23103,568224
23105,567746
23108,568888
23110,568535
23112,568981
23115,568370
23117,569492
23119,569124
23122,569641
23124,569314
23127,570004
23130,569671
23132,570220
23134,569787
23137,569481
23139,570236
23141,570826
23144,570335
23146,570050
23148,571162
23151,571460
23153,570952
23155,570621
23158,571771
23160,571496
23162,572106
23165,571318
23168,572455
23170,572147
23173,572793
23175,572176
23177,573116
23179,572820
23182,573511
23184,572803
23186,572574
23189,573404
23191,574025
23193,573167
23196,572900
23198,573929
23200,573972
23203,572955
23205,572471
23207,573294
23211,572595
23213,572840
23215,570733
23218,571350
23220,570318
23222,570297
23225,568784
23227,568176
23229,566989
23232,566790
23234,565146
23236,564105
23239,563060
23241,562903
23243,561213
23246,560103
23248,560380
23250,559031
23254,557348
23256,556377
23258,556740
23261,555555
23263,555515
23265,552969
23267,553400
23270,552382
23272,552432
23274,550933
23277,550686
23279,549746
23281,549880
23284,548588
23286,547942
23288,547763
23291,548018
23293,546840
23296,546329
23299,547038
23301,546331
23303,545622
23306,545244
23308,546029
23310,545440
23313,545963
23315,544798
23317,545539
23320,545059
23322,545730
23324,544775
23327,545478
23329,545058
23331,545729
23334,544883
23336,544967
23339,545411
23342,546120
23344,545309
23346,545512
23349,546036
23351,545882
23353,545911
23355,546223
23358,546676
23360,546551
23362,547379
23365,547034
23367,547434
23369,547330
23372,548142
23374,547460
23376,548084
23379,548061
23382,548893
23384,548208
23387,548579
23389,548880
23391,549641
23394,548910
23396,549353
23398,549436
23401,549508
23403,549585
23405,550157
23408,550152
23410,550270
23412,551094
23415,550972
23417,550921
23419,551042
23422,551938
23425,551276
23427,551778
23430,551925
23432,552852
23434,552220
23436,552873
23439,552968
23441,553875
23443,553179
23446,553843
23448,553746
23450,553922
23453,554099
23455,554763
23457,554612
23460,554754
23462,555619
23464,555567
23468,555306
23470,555432
23472,556255
23475,555484
23477,555770
23479,555848
23482,556622
23484,555771
23486,556300
23489,556050
23491,556720
23493,555894
23496,556374
23498,556035
23500,556063
23503,555883
23505,556414
23507,555962
23511,555966
23513,556601
23515,556211
23518,555787
23520,555778
23522,556380
23524,555475
23527,555533
23529,555574
23531,556107
23534,555171
23536,555627
23538,555251
23541,555875
23543,554965
23545,555507
23548,555045
23550,555080
23553,554791
23556,555311
23558,554921
23560,555022
23563,555565
23565,555320
23567,554915
23570,555134
23572,555603
23574,554800
23577,555073
23579,555330
23581,555782
23584,555026
23586,555650
23588,555386
23591,556011
23593,555338
23596,556025
23599,555798
23601,556250
23603,555753
23606,556535
23608,556204
23610,556764
23612,556835
23615,557048
23617,556859
23619,557466
23622,557448
23624,556976
23626,557562
23629,558251
23631,558142
23633,557694
23636,558530
23639,558305
23641,558868
23644,558451
23646,559339
23648,559105
23651,559884
23653,559306
23655,560130
23658,559997
23660,560852
23662,560411
23665,560961
23667,560757
23669,561636
23672,561161
23674,560958
23676,561575
23680,562437
23682,561990
23684,561722
23687,562588
23689,562387
23691,562800
23694,562529
23696,563398
23698,563195
23700,564104
23703,563325
23705,564174
23707,563933
23710,564868
23712,564269
23714,564845
23717,564653
23719,565543
23721,564925
23725,564719
23727,565348
23729,566238
23732,565562
23734,565339
23736,566181
23739,565961
23741,566159
23743,565936
23746,566785
23748,566578
23750,567457
23753,566578
23755,567375
23757,567159
23760,568123
23762,567406
23764,567999
23768,567776
23770,568706
23772,567999
23775,567784
23777,568388
23779,569300
23782,568628
23784,568372
23786,569223
23788,568984
23791,569269
23793,569072
23795,569908
23798,569735
23800,570685
23802,569817
23805,570618
23808,570392
23810,571429
23813,570721
23815,571316
23817,571098
23820,571983
23822,571222
23824,571085
23827,571368
23829,572210
23831,571269
23834,571066
23836,571317
23838,570900
23841,570319
23843,569932
23845,569815
23848,569148
23851,569527
23853,567485
23856,566956
23858,566138
23860,566324
23863,564791
23865,563407
23867,562522
23870,562659
23872,560987
23874,560395
23876,559485
23879,558825
23881,557165
23883,556653
23886,555722
23888,555050
23890,553709
23894,553260
23896,552356
23898,551730
23901,552064
23903,550372
23905,549454
23908,549010
23910,549457
23912,548135
23915,547189
23917,546884
23919,547457
23922,546270
23924,546333
23926,545483
23929,546046
23931,544922
23933,545230
23937,544404
23939,544384
23941,544223
23944,544540
23946,543864
23948,543919
23951,544830
23953,544436
23955,543715
23958,543812
23960,544833
23962,544056
23964,543957
23967,544188
23969,545206
23971,544476
23974,545022
23976,544400
23979,545800
23982,545078
23984,545698
23986,545189
23989,545430
23991,545831
23993,546473
23996,545936
23998,546226
24000,547380
24003,547342
24005,546808
24007,547103
24010,548245
24012,547487
24014,547598
24017,547887
24019,548996
24022,548271
24025,548911
24027,548384
24029,549791
24032,549068
24034,549697
24036,549118
24039,549468
24041,549893
24043,550564
24045,549977
24048,550406
24050,551508
24052,551457
24055,550923
24057,551376
24059,552456
24062,551793
24065,552029
24067,552443
24070,553512
24072,552902
24074,553615
24077,553112
24079,554550
24081,553924
24084,554592
24086,554029
24088,554566
24091,554669
24093,555401
24095,554785
24098,555339
24100,556003
24102,555968
24105,555331
24108,555889
24110,556330
24113,555642
24115,555525
24117,556146
24120,556434
24122,555698
24124,556280
24127,555518
24129,556292
24131,555585
24133,556158
24136,555413
24138,555973
24140,555255
24143,555852
24145,555102
24147,555712
24151,555610
24153,555545
24155,554730
24158,555369
24160,555247
24162,554613
24165,555084
24167,555009
24169,554791
24172,554176
24174,554728
24176,554000
24179,554433
24181,553894
24183,554524
24186,553734
24188,554672
24190,553743
24194,554369
24196,553707
24198,554591
24201,554239
24203,554388
24205,553756
24208,554648
24210,554367
24212,553903
24215,554577
24217,555013
24219,554680
24221,554209
24224,554980
24226,554405
24228,555028
24231,554680
24233,555454
24236,554966
24239,555953
24241,555249
24243,556069
24246,555534
24248,556592
24250,556285
24253,556767
24255,556215
24257,557295
24260,556991
24262,556653
24264,557495
24267,558093
24269,557728
24271,557445
24274,558347
24276,557799
24279,558644
24282,558319
24284,559178
24286,558722
24289,559847
24291,559196
24293,560040
24296,559543
24298,560676
24300,560360
24303,560847
24305,560420
24307,561515
24309,561174
24312,560982
24314,561780
24316,562373
24320,562042
24322,561814
24324,562502
24327,562033
24329,562829
24331,562635
24334,563277
24336,562809
24338,563879
24341,563377
24343,563927
24345,563541
24348,564640
24350,564276
24352,564544
24355,564175
24357,565304
24359,564896
24363,564916
24365,565168
24367,565966
24370,565584
24372,565618
24374,565709
24377,565369
24379,566093
24381,566172
24384,566091
24386,565895
24388,567008
24391,566707
24393,566617
24395,566382
24397,567505
24400,567062
24402,567102
24404,566892
24408,568078
24410,567757
24412,567949
24415,567675
24417,568688
24419,568304
24422,568599
24424,568230
24426,568152
24429,568971
24431,569364
24433,568933
24436,568838
24438,570035
24440,570030
24443,569542
24445,569510
24448,570700
24451,570328
24453,570667
24455,569977
24458,571105
24460,570683
24462,570972
24465,570254
24467,571035
24469,570373
24472,570531
24474,569546
24476,569054
24479,568900
24481,568742
24483,567536
24485,566877
24488,567313
24491,565847
24493,564401
24496,563535
24498,563923
24500,562618
24503,562231
24505,559796
24507,560147
24510,558837
24512,558458
24514,556941
24517,556423
24519,555224
24521,554953
24524,553501
24526,552765
24528,551977
24531,551739
24534,550426
24536,549794
24539,550269
24541,549202
24543,547868
24546,547383
24548,548015
24550,547111
24553,547094
24555,545651
24557,546382
24560,545619
24562,545736
24564,544767
24567,545377
24569,544644
24571,544890
24573,544043
24577,543916
24579,544213
24581,544515
24584,543738
24586,543754
24588,544655
24591,544546
24593,543882
24595,544046
24598,544832
24600,544474
24602,544921
24605,544559
24607,545295
24609,545073
24612,545554
24614,544948
24616,545950
24620,545804
24622,546315
24624,545707
24627,546247
24629,546552
24631,547148
24634,546553
24636,547040
24638,547513
24641,548034
24643,547440
24645,548039
24648,548348
24650,548243
24652,548876
24654,548955
24657,549143
24659,549158
24662,549726
24665,549168
24667,549964
24669,550052
24672,550680
24674,550086
24676,550862
24679,550986
24681,551626
24683,551087
24686,551888
24688,551957
24690,552746
24693,552252
24695,553138
24697,553073
24700,553186
24702,553873
24705,554210
24708,554146
24710,554237
24712,554926
24715,554422
24717,555103
24719,555201
24722,555856
24724,555228
24726,556046
24729,555880
24731,556419
24733,555746
24736,556548
24738,556178
24740,556175
24742,555989
24745,556713
24748,556375
24750,556345
24753,556772
24755,556679
24757,556200
24760,556120
24762,556515
24764,555734
24767,555928
24769,555825
24771,556237
24774,555370
24776,556076
24778,555438
24781,555859
24783,555010
24785,555668
24788,555159
24791,555085
24793,554614
24796,555362
24798,554829
24800,554703
24803,555098
24805,555038
24807,554510
24810,554470
24812,554825
24814,554078
24817,554388
24819,554318
24821,554755
24824,553954
24826,554772
24828,554360
24830,554811
24834,554039
24836,554878
24838,554452
24841,554507
24843,554264
24845,555118
24848,554696
24850,554890
24852,555170
24855,555474
24857,555173
24859,555384
24862,555558
24864,555033
24866,555601
24869,555999
24871,556102
24873,555593
24877,556587
24879,556727
24881,556702
24884,556244
24886,557315
24888,556993
24891,557518
24893,556982
24895,558041
24898,557801
24900,558357
24902,558201
24905,558944
24907,558681
24909,559345
24912,559061
24914,558791
24916,559555
24919,560241
24922,559895
24924,559657
24926,560778
24929,561263
24931,560727
24933,560477
24936,561675
24938,561425
24940,562139
24943,561385
24945,562499
24947,562255
24950,563070
24952,562418
24954,563411
24957,563098
24960,563878
24962,563205
24965,563041
24967,563860
24969,564692
24972,563947
24974,563769
24976,564939
24979,565438
24981,564641
24983,564468
24986,565640
24988,565353
24990,566103
24993,565079
24995,566257
24997,565911
25000,566723
25003,565936
