3001,575415
3002,575415
3004,574985
3006,576219
3008,575697
3009,576405
3011,575797
3013,575426
3015,576654
3017,576103
3019,576773
3021,576202
3023,575876
3025,577122
3027,576597
3030,577298
3032,576556
3034,576264
3036,577501
3038,577027
3040,577771
3042,576998
3044,577954
3046,577402
3049,578265
3051,577374
3053,577125
3055,578431
3057,577946
3059,578729
3062,577900
3064,578897
3066,578339
3068,579203
3070,578257
3073,577900
3075,579226
3078,578638
3080,579418
3082,578406
3084,578036
3086,578494
3088,579206
3091,578063
3093,577506
3095,578480
3097,577579
3099,578108
3101,576645
3104,575965
3106,575662
3108,575957
3110,574357
3112,573432
3115,574122
3117,572941
3120,573110
3122,571436
3124,570547
3126,571093
3128,570161
3130,568508
3133,567622
3135,568272
3137,567102
3139,567403
3141,565874
3143,565090
3146,565828
3148,565178
3150,563752
3152,563051
3154,563936
3156,562995
3159,563532
3162,562190
3164,561674
3166,562609
3168,561749
3170,561153
3172,560738
3175,561760
3177,560959
3179,561688
3181,560528
3183,560276
3185,561208
3188,560646
3190,560333
3192,560210
3194,561142
3196,560618
3198,561465
3201,560441
3204,560476
3206,561207
3208,560821
3210,561711
3212,560844
3214,561502
3217,561173
3219,562093
3221,561195
3223,561377
3225,561974
3227,561711
3230,562648
3232,562078
3234,562512
3236,562347
3238,563423
3240,562462
3243,562894
3246,563245
3248,563098
3250,564148
3252,563244
3254,563924
3256,563838
3259,564935
3261,563961
3263,564582
3265,564667
3267,564583
3269,565676
3272,564720
3274,565334
3276,565282
3278,566300
3280,565434
3282,566073
3286,565909
3288,565920
3290,566991
3292,566113
3294,566760
3296,566614
3298,567665
3301,566826
3303,567507
3305,567219
3307,567376
3309,568475
3311,567612
3314,568364
3316,568143
3318,569251
3320,568370
3322,569239
3324,568854
3328,569039
3330,570110
3332,569202
3334,569995
3336,569635
3338,570761
3340,569889
3343,570651
3345,570217
3347,570308
3349,571341
3351,570409
3353,571090
3356,570669
3358,571644
3360,570660
3362,571347
3364,570845
3366,570886
3369,571757
3372,570758
3374,571386
3376,570886
3378,570844
3380,570624
3382,571218
3385,570725
3387,570596
3389,571465
3391,570358
3393,570956
3395,570354
3398,570299
3400,570051
3402,570619
3404,569991
3406,569906
3408,570721
3411,569669
3414,570277
3416,569621
3418,569549
3420,570351
3422,569909
3424,569287
3427,569227
3429,569982
3431,568888
3433,569531
3435,568927
3437,568993
3440,569717
3442,569264
3444,568731
3446,568850
3448,569409
3450,568423
3453,569122
3456,568548
3458,568829
3460,569262
3462,568356
3464,568598
3466,569007
3469,569317
3471,568508
3473,569278
3475,568792
3477,569225
3479,569400
3482,568668
3484,569030
3486,569582
3488,569649
3490,568940
3492,569826
3495,569341
3497,569958
3500,569870
3502,569310
3504,570203
3506,570462
3508,570301
3511,569728
3513,570684
3515,570199
3517,570999
3519,570695
3521,570166
3524,571148
3526,571488
3528,571083
3530,570634
3532,571675
3534,571198
3537,572117
3539,571704
3542,571205
3544,572197
3546,571732
3548,572082
3550,571747
3553,572801
3555,572376
3557,573383
3559,572686
3561,572288
3563,573335
3566,572887
3568,573951
3570,572871
3572,573926
3574,573564
3576,574594
3579,573838
3581,573533
3584,574521
3586,574071
3588,575116
3590,573971
3592,575014
3595,574568
3597,575626
3599,574821
3601,574515
3603,575572
3605,575078
3608,576118
3610,575340
3612,575990
3614,575509
3616,576555
3618,575751
3621,575437
3623,576406
3625,575930
3628,577036
3630,576164
3632,576828
3635,576343
3637,577389
3639,576546
3641,576211
3643,577191
3645,576722
3647,577817
3650,576890
3652,576578
3654,577111
3656,578151
3658,577278
3660,577030
3663,577924
3665,577497
3667,578579
3670,577653
3672,577312
3674,577815
3677,578808
3679,577915
3681,577679
3683,578603
3685,578192
3687,579268
3689,578321
3692,578158
3694,578932
3696,579658
3698,578715
3700,578581
3702,579306
3705,578889
3707,580016
3709,579115
3712,579091
3714,579666
3716,580489
3719,579537
3721,579668
3723,580043
3725,579824
3727,580935
3729,580012
3731,580203
3734,580381
3736,580154
3738,580376
3740,580566
3742,580597
3744,580334
3747,581429
3749,580376
3751,580528
3753,580299
3756,579983
3758,579649
3761,579618
3763,579007
3765,578470
3767,579198
3769,577678
3771,577482
3773,576484
3776,575836
3778,576348
3780,574481
3782,573280
3784,572516
3786,572944
3789,571240
3791,571137
3793,569892
3795,569193
3798,569696
3800,567988
3803,566721
3805,566191
3807,566828
3809,565334
3811,565372
3813,564202
3815,563841
3818,564565
3820,563167
3822,562296
3824,562040
3826,562859
3828,561544
3831,561967
3833,560909
3835,560739
3837,561754
3840,560592
3842,560050
3845,559989
3847,561063
3849,559917
3851,560486
3853,559617
3855,559672
3857,560806
3860,559761
3862,560333
3864,559655
3866,560823
3868,559850
3870,560533
3873,559732
3875,559847
3877,561059
3879,560093
3881,560828
3884,560235
3887,561512
3889,560566
3891,561335
3893,560560
3895,560805
3897,562033
3899,561129
3902,561890
3904,561179
3906,562653
3908,561748
3910,562556
3912,561772
3915,562027
3917,563335
3919,562422
3921,563219
3923,562478
3926,563972
3929,563026
3931,563767
3933,563048
3935,563305
3937,564522
3939,563560
3941,564412
3944,563623
3946,563882
3948,564057
3950,564885
3952,564128
3954,564457
3957,565388
3959,564467
3961,565346
3963,564600
3965,564990
3968,564978
3971,565789
3973,565018
3975,565618
3977,566289
3979,565453
3981,566326
3983,565580
3986,566242
3988,566765
3990,566984
3992,566226
3994,566995
3996,567383
3999,566688
4001,567580
4003,566936
4005,567653
4007,567897
4009,568116
4013,567413
4015,568294
4017,568377
4019,567751
4021,568637
4023,567819
4026,568705
4028,568646
4030,568010
4032,568139
4034,568958
4036,568788
4038,568156
4041,569005
4043,568136
4045,569092
4047,568766
4049,568199
4051,568137
4055,569075
4057,568652
4059,568022
4061,568878
4063,568027
4065,568933
4068,568383
4070,567810
4072,568587
4074,568643
4076,568041
4078,567507
4080,568301
4083,567419
4085,568318
4087,567720
4089,567144
4091,567986
4093,568054
4097,567402
4099,566841
4101,567712
4103,566823
4105,567817
4107,567161
4110,566589
4112,567443
4114,566601
4116,566986
4118,566430
4120,567323
4122,566496
4125,567554
4127,566874
4129,566385
4131,567250
4133,566435
4135,566962
4139,566500
4141,567389
4143,566579
4145,567701
4147,567079
4149,566578
4152,567461
4154,566752
4156,567841
4158,566786
4160,567717
4162,566994
4164,568140
4167,567545
4169,567102
4171,568055
4173,567311
4175,568478
4177,567832
4180,568393
4183,567756
4185,568877
4187,568272
4189,567894
4191,568781
4194,568114
4196,569249
4198,568724
4200,569290
4202,568633
4204,569826
4206,569226
4209,568976
4211,569757
4213,569138
4215,570350
4217,569717
4219,569591
4222,569593
4225,570844
4227,570240
4229,570233
4231,570623
4233,570148
4236,571354
4238,570771
4240,570863
4242,570718
4244,571919
4246,571338
4248,571533
4251,571612
4253,571272
4255,572500
4257,571931
4259,572126
4261,572102
4264,573082
4267,572498
4269,572712
4271,572577
4273,572289
4275,573546
4278,572996
4280,573217
4282,573002
4284,574037
4286,573458
4288,573758
4290,573365
4293,573140
4295,574520
4297,573925
4299,574294
4301,573731
4303,573583
4306,574350
4308,574743
4311,574151
4313,574035
4315,575326
4317,574711
4320,575179
4322,574485
4324,574368
4326,575074
4328,575570
4330,574807
4332,574755
4335,576002
4337,575476
4339,575976
4341,575173
4343,575085
4345,576338
4348,576254
4350,575394
4353,575371
4355,576636
4357,576053
4359,576552
4362,575711
4364,575649
4366,576915
4368,576898
4370,576075
4372,576005
4374,577248
4377,576706
4379,577222
4381,576340
4383,576356
4385,577609
4387,576945
4390,576651
4392,576644
4395,578026
4397,577338
4399,577936
4401,577073
4404,577042
4406,578384
4408,577744
4410,577506
4412,577537
4414,578785
4417,578232
4419,578804
4421,577952
4423,577995
4425,579232
4427,578625
4429,579243
4432,578387
4434,579664
4436,579055
4439,579570
4441,578670
4443,578677
4446,579830
4448,579138
4450,579564
4452,578416
4454,579310
4456,578386
4459,578593
4461,577319
4463,576999
4465,577503
4467,576394
4469,576375
4471,574899
4474,574717
4476,573393
4478,573308
4481,571707
4483,571339
4485,571314
4488,570080
4490,569944
4492,568422
4494,568039
4496,566983
4498,566922
4501,565392
4503,565315
4505,565149
4507,564174
4509,564310
4511,562902
4513,563021
4516,561992
4518,562219
4520,561054
4523,561259
4525,561027
4527,560464
4530,560765
4532,559639
4534,560084
4536,559346
4538,559857
4540,558775
4543,559349
4545,559063
4547,558687
4549,559305
4551,558337
4553,558968
4555,558673
4558,559029
4560,558098
4562,558980
4564,558638
4567,558405
4569,559151
4572,558201
4574,559150
4576,558785
4578,559365
4580,558553
4582,559524
4585,559132
4587,559105
4589,559855
4591,559061
4593,560091
4595,559634
4597,559571
4600,559660
4602,560667
4604,560191
4606,560167
4609,560991
4611,560188
4614,561296
4616,560821
4618,560787
4620,560797
4622,561905
4624,561454
4627,561350
4629,562192
4631,561437
4633,562443
4635,562005
4637,562012
4639,562800
4642,563071
4644,562572
4646,562547
4648,563310
4651,562480
4653,563619
4656,563054
4658,562997
4660,563767
4662,564097
4664,563558
4666,563514
4669,564311
4671,563461
4673,564600
4675,564112
4677,564088
4679,564839
4681,564054
4684,564736
4686,564706
4688,565528
4690,564711
4692,565864
4695,565388
4698,565358
4700,566169
4702,565376
4704,565981
4706,565966
4708,566666
4711,565830
4713,566963
4715,566410
4717,566478
4719,567104
4721,566248
4723,567362
4726,566861
4728,567211
4730,566424
4732,567460
4734,566899
4737,567034
4740,567196
4742,566409
4744,567451
4746,566839
4748,567044
4750,566220
4753,567332
4755,566595
4757,566870
4759,566689
4761,565905
4763,566982
4766,566298
4768,566277
4770,565615
4772,566668
4774,565919
4776,566231
4779,565778
4782,565131
4784,566190
4786,565497
4788,565872
4790,564636
4792,565737
4795,565030
4797,565539
4799,564871
4801,564297
4803,565421
4805,564702
4808,565303
4810,564038
4812,565133
4814,564465
4816,565096
4818,564298
4820,563817
4824,565014
4826,564421
4828,565051
4830,564131
4832,564958
4834,564379
4837,565136
4839,564167
4841,563872
4843,565031
4845,564462
4847,565227
4850,564300
4852,565204
4854,564678
4856,565480
4858,564559
4860,564210
4862,565516
4866,564980
4868,565789
4870,564813
4872,564505
4874,565289
4876,566097
4879,565141
4881,564907
4883,566165
4885,565615
4887,566532
4889,565573
4892,565349
4894,566117
4896,566994
4898,566036
4900,565832
4902,567149
4904,566632
4908,567503
4910,566533
4912,566326
4914,567592
4916,568008
4918,567092
4921,566823
4923,568176
4925,567665
4927,568594
4929,567643
4931,567436
4934,568753
4936,569115
4938,568160
4940,567981
4942,569277
4944,568720
4946,569658
4950,568704
4952,568520
4954,569816
4956,569332
4958,569301
4960,569146
4963,570418
4965,569836
4967,570782
4969,569812
4971,569783
4973,570938
4976,570409
4978,570315
4980,570321
4982,571310
4984,570826
4986,571728
4988,570792
4992,570871
4994,571736
4996,571326
4998,572199
5000,571352
5002,571981
5005,571595
5007,572546
5009,571511
5011,571752
5013,572232
5015,571922
5018,572808
5020,572139
5022,572481
5024,572193
5026,573079
5028,572170
5030,572499
5033,572664
5036,572454
5038,573395
5040,572416
5042,572916
5044,572725
5047,573738
5049,572726
5051,573117
5053,573161
5055,572978
5057,573957
5060,572962
5062,573374
5064,573287
5066,574336
5068,573326
5070,573883
5073,573680
5075,573621
5078,574594
5080,573597
5082,574326
5084,574029
5086,575033
5089,574082
5091,574796
5093,574412
5095,574450
5097,575478
5099,574537
5102,575225
5104,574932
5106,575965
5108,574943
5110,575703
5112,575317
5114,575319
5117,576285
5120,575316
5122,576008
5124,575546
5126,576366
5128,575284
5131,575862
5133,575257
5135,575117
5137,575799
5139,574546
5141,574938
5144,574038
5146,574125
5148,572627
5150,572766
5152,571714
5154,571101
5157,571403
5159,569760
5161,569809
5164,568668
5166,567967
5168,566545
5170,566643
5173,565540
5175,564899
5177,565135
5179,563578
5181,563656
5183,562680
5186,562117
5188,560942
5190,561178
5192,560260
5194,559822
5196,560315
5199,558947
5201,559293
5203,558474
5206,558155
5208,558754
5210,557885
5212,557138
5215,557048
5217,557592
5219,556409
5221,557039
5223,556366
5225,556283
5228,556929
5230,556503
5232,555890
5234,555976
5236,556596
5238,555692
5241,556353
5243,555803
5245,556056
5248,556485
5250,555693
5252,555922
5254,556362
5257,556658
5259,555896
5261,556724
5263,556302
5265,556787
5267,556948
5270,556332
5272,556795
5274,557393
5276,557448
5278,556847
5280,557812
5283,557405
5285,558067
5287,558006
5289,557519
5292,558448
5294,558792
5296,558598
5299,558089
5301,559067
5303,558723
5305,559501
5307,559213
5309,558771
5312,559755
5314,560188
5316,559740
5318,559335
5320,560322
5322,559952
5325,560870
5327,560295
5329,559946
5331,560904
5334,560597
5336,560816
5338,560547
5341,561505
5343,561214
5345,562190
5347,561493
5349,561199
5351,562219
5354,561819
5356,562848
5358,561897
5360,562872
5362,562502
5364,563527
5367,562769
5369,562553
5371,563553
5373,563203
5376,564218
5378,563187
5380,564243
5383,563915
5385,564861
5387,564035
5389,563754
5391,564685
5393,564345
5396,565294
5398,564435
5400,564975
5402,564468
5404,565480
5406,564561
5409,564194
5411,565042
5413,564615
5415,565534
5417,564527
5420,564960
5422,564455
5425,565372
5427,564329
5429,563916
5431,564776
5433,564182
5435,565060
5438,564037
5440,563577
5442,563823
5444,564703
5446,563600
5448,563178
5451,563942
5453,563395
5455,564232
5457,563114
5459,562705
5462,562901
5464,563782
5467,562709
5469,562275
5471,563059
5473,562487
5475,563333
5477,562291
5480,561939
5482,562647
5484,563011
5486,561948
5488,561793
5490,562384
5493,561888
5495,562841
5497,561801
5499,561710
5501,562147
5504,562776
5506,561756
5509,561741
5511,562093
5513,561737
5515,562799
5517,561755
5519,561913
5522,562040
5524,561840
5526,561898
5528,562098
5530,562131
5532,561982
5535,563164
5537,562207
5539,562465
5541,562399
5543,562325
5545,562466
5549,562886
5551,562649
5553,562610
5555,563798
5557,562829
5559,563307
5561,563025
5564,562997
5566,564174
5568,563770
5570,563407
5572,563443
5574,564654
5577,563750
5579,564297
5581,563837
5583,563906
5585,565183
5587,564827
5591,564316
5593,564457
5595,565712
5597,564756
5599,565432
5601,564788
5603,564891
5606,566197
5608,565266
5610,565362
5612,565516
5614,566693
5616,565807
5619,566586
5621,565795
5623,566025
5625,567315
5627,566334
5629,566380
5633,566566
5635,567823
5637,566901
5639,567605
5641,566891
5643,567079
5645,568366
5648,567388
5650,568151
5652,567584
5654,568802
5656,567910
5658,568631
5661,567892
5663,567989
5665,569301
5667,568328
5669,569060
5671,568481
5675,569717
5677,568721
5679,569466
5681,568790
5683,568936
5685,570079
5687,569096
5690,569857
5692,569136
5694,570577
5696,569512
5698,570235
5700,569475
5703,569706
5705,570877
5707,569861
5709,570657
5711,569865
5713,571199
5716,570204
5719,571017
5721,570188
5723,570446
5725,571561
5727,570562
5729,571339
5732,570608
5734,570834
5736,570956
5738,571732
5740,570976
5742,571267
5745,572266
5747,571361
5749,572151
5751,571390
5753,571809
5755,571718
5758,572553
5761,571863
5763,572400
5765,573063
5767,572162
5769,573046
5771,572294
5774,572835
5776,573344
5778,573406
5780,572617
5782,573256
5784,573528
5787,572686
5789,573516
5791,572690
5793,573269
5795,573344
5797,573023
5800,572055
5803,572516
5805,572192
5807,571125
5809,571639
5811,570404
5813,570632
5816,570029
5818,568774
5820,567716
5822,567906
5824,567064
5826,565836
5829,566027
5831,564647
5833,564829
5835,563921
5837,562758
5839,561669
5842,562021
5844,561097
5847,559995
5849,560400
5851,559124
5853,559625
5855,558637
5858,557651
5860,558217
5862,557640
5864,556808
5866,555932
5868,556471
5871,555457
5873,556165
5875,555345
5877,554543
5879,555190
5881,555033
5884,554340
5886,553639
5889,554360
5891,553510
5893,554383
5895,553676
5898,553127
5900,553934
5902,553175
5904,553433
5906,552849
5908,553744
5910,553027
5913,554036
5915,553384
5917,552916
5919,553844
5921,553170
5923,553614
5926,553170
5928,554080
5931,553408
5933,554555
5935,553961
5937,553590
5940,554526
5942,553953
5944,555045
5946,554090
5948,554974
5950,554432
5952,555542
5955,555061
5957,554674
5959,555577
5961,555003
5963,556131
5965,555551
5968,556135
5970,555633
5972,556702
5975,556144
5977,555838
5979,556780
5982,556162
5984,557284
5986,556724
5988,557258
5990,556669
5992,557843
5994,557239
5997,557057
5999,557786
6001,557228
6003,558367
6005,557822
6007,557673
6010,557805
6012,558958
6014,558385
6017,558360
6019,558786
6021,558405
6024,559536
6026,558980
6028,559046
6030,558990
6032,560238
6034,559661
6036,559840
6039,559968
6041,559687
6043,560923
6045,560337
6047,560494
6049,560482
6052,561452
6054,560915
6056,561107
6059,560898
6061,560667
6063,561857
6066,561237
6068,561499
6070,561172
6072,562114
6074,561415
6076,561718
6078,561243
6081,561022
6083,562200
6085,561543
6087,561836
6089,561229
6091,561056
6094,561437
6096,561686
6098,561050
6100,560803
6103,561920
6105,561174
6108,561512
6110,560715
6112,560524
6114,560838
6116,561198
6118,560274
6120,560108
6123,561244
6125,560461
6127,560768
6129,559889
6131,559629
6133,560825
6136,560387
6138,559431
6140,559317
6142,560464
6145,559779
6147,560136
6150,559250
6152,559136
6154,560238
6156,559912
6158,559076
6160,558928
6162,560128
6165,559436
6167,559896
6169,559004
6171,558997
6173,560103
6175,559409
6178,559080
6180,559107
6182,560305
6184,559542
6187,560091
6189,559287
6192,559255
6194,560463
6196,559813
6198,559430
6200,559483
6202,560712
6204,560031
6207,560629
6209,559796
6211,559815
6213,561001
6215,560339
6217,560991
6220,560245
6222,561437
6224,560804
6226,561395
6228,560506
6231,560660
6234,561834
6236,561168
6238,561789
6240,561120
6242,562232
6244,561621
6246,562226
6249,561397
6251,561644
6253,562676
6255,562117
6257,562794
6259,561975
6262,563187
6264,562682
6266,563384
6268,562503
6270,562984
6273,563717
6276,563277
6278,563942
6280,563106
6282,564227
6284,563842
6286,564527
6289,563676
6291,564261
6293,564689
6295,564325
6297,565029
6299,564199
6301,564884
6304,564865
6306,565595
6308,564754
6310,565470
6312,565566
6315,565328
6318,566070
6320,565264
6322,566010
6324,565786
6326,566585
6328,565768
6331,566603
6333,566531
6335,566334
6337,567059
6339,566272
6341,567199
6343,567046
6346,567632
6348,566748
6350,567646
6352,567398
6354,567246
6356,567973
6360,567120
6362,568107
6364,567737
6366,568361
6368,567505
6370,568571
6373,568140
6375,568006
6377,568803
6379,568002
6381,569024
6383,568522
6385,568445
6388,568400
6390,569404
6392,568920
6394,568850
6396,569679
6398,568793
6402,569812
6404,569318
6406,569191
6408,569220
6410,570205
6412,569775
6415,569625
6417,570441
6419,569618
6421,570741
6423,570198
6425,570103
6427,570914
6430,571162
6432,570691
6434,570611
6436,571418
6438,570562
6440,571728
6444,571201
6446,571167
6448,571966
6450,572245
6452,571676
6454,571587
6457,572367
6459,571488
6461,572638
6463,572016
6465,571957
6467,572721
6469,571772
6472,572173
6474,571977
6476,572541
6478,571505
6480,572385
6482,571536
6486,571141
6488,571493
6490,570247
6492,569752
6494,569177
6496,569187
6499,567706
6501,568196
6503,566999
6505,566264
6507,566161
6509,564629
6511,565080
6514,563245
6516,563019
6518,561601
6520,562128
6522,560924
6524,560491
6528,560117
6530,558897
6532,559459
6534,558327
6536,557641
6538,556573
6541,557184
6543,556212
6545,556086
6547,555647
6549,554638
6551,555442
6553,554477
6556,554085
6558,553219
6560,554164
6562,553375
6564,553513
6566,552997
6569,552233
6572,553307
6574,552549
6576,552867
6578,551696
6580,552761
6583,552130
6585,552604
6587,551983
6589,551486
6591,552632
6593,552058
6595,552595
6598,551500
6600,552732
6602,552151
6604,552819
6606,552132
6608,551771
6611,553040
6614,552495
6616,553196
6618,552481
6620,553446
6622,552945
6625,553768
6627,553002
6629,552707
6631,554046
6633,553505
6635,554338
6637,553479
6640,554555
6642,554088
6644,554857
6646,554078
6648,553855
6650,555191
6653,554733
6656,555578
6658,554759
6660,554550
6662,555330
6664,556162
6667,555301
6669,555072
6671,556479
6673,555983
6675,556804
6677,555975
6680,555704
6682,556596
6684,557409
6686,556562
6688,556360
6690,557676
6692,557163
6695,558073
6697,557200
6700,556971
6702,558355
6704,558749
6706,557883
6709,557715
6711,559077
6713,558624
6715,559491
6717,558628
6719,558478
6722,559828
6724,560237
6726,559347
6728,559201
6730,560469
6732,559985
6734,560793
6737,559886
6739,559712
6742,561039
6744,560496
6746,560359
6748,560178
6751,561392
6753,560875
6755,561622
6757,560609
6759,560431
6761,561481
6764,560980
6766,560627
6768,560579
6770,561460
6772,560823
6774,561567
6776,560479
6779,560503
6781,561136
6784,560601
6786,561272
6788,560250
6790,560737
6793,560255
6795,560897
6797,559838
6799,559892
6801,560205
6803,559779
6806,560499
6808,559535
6810,559720
6812,559320
6814,560026
6816,559019
6818,559161
6821,559285
6823,558941
6825,559728
6828,558641
6830,558964
6832,558662
6835,559473
6837,558439
6839,558787
6841,558730
6843,558501
6845,559266
6848,558344
6850,558664
6852,558512
6854,559362
6856,558344
6858,558897
6860,558704
6863,558640
6865,559476
6867,558558
6870,559107
6872,558796
6874,559677
6877,558804
6879,559373
6881,559066
6883,559067
6885,559958
6887,559030
6890,559736
6892,559437
6894,560376
6896,559499
6898,560264
6900,559821
6902,559880
6905,560856
6907,559882
6909,560682
6912,560270
6914,561298
6916,560426
6919,561163
6921,560838
6923,560937
6925,561837
6927,561020
6929,561785
6932,561386
6934,562398
6936,561567
6938,562383
6940,561922
6942,562033
6944,562967
6947,562062
6949,562934
6951,562502
6953,562640
6956,562734
6958,563552
6961,563128
6963,563221
6965,564165
6967,563366
6969,564180
6971,563765
6974,563906
6976,563951
6978,564713
6980,564377
6982,564515
6984,565391
6986,564550
6989,565370
6991,565024
6993,565090
6995,566008
6998,565967
7000,565536
7003,565701
7005,566545
7007,565714
7009,566502
7011,566057
7013,566278
7016,566983
7018,567040
7020,566633
7022,566858
7024,567473
7026,566685
7029,567533
7031,567091
7033,567445
7035,567866
7037,567142
7040,567564
7042,567981
7045,568233
7047,567567
7049,568406
7051,567999
7053,568496
7055,568603
7058,567926
7060,568375
7062,568956
7064,568924
7066,568370
7068,569248
7071,568816
7073,569452
7075,569233
7077,568744
7079,569653
7081,569956
7084,569617
7087,569106
7089,570092
7091,569758
7093,570482
7095,570088
7097,569640
7100,570539
7102,571002
7104,570486
7106,570080
7108,571062
7110,570677
7113,571594
7115,570945
7117,570614
7119,571597
7121,571237
7123,571426
7126,571086
7129,572073
7131,571690
7133,572670
7135,571816
7137,571474
7139,572456
7142,571943
7144,572890
7146,571526
7148,572334
7150,571767
7152,572535
7155,571310
7157,570692
7159,571289
7161,570409
7163,570920
7165,568662
7168,569075
7171,568072
7173,568382
7175,566840
7177,565848
7179,566146
7181,565068
7184,565417
7186,563836
7188,563145
7190,562056
7192,562456
7194,560870
7197,560000
7199,560420
7201,559391
7203,559890
7205,558411
7207,558050
7209,557148
7213,557707
7215,556229
7217,555557
7219,556097
7221,555291
7223,555837
7226,554557
7228,553977
7230,553880
7232,554562
7234,553312
7236,552816
7239,553498
7241,552890
7243,553686
7245,552441
7247,552070
7249,552258
7251,553147
7255,552025
7257,551686
7259,552576
7261,552025
7263,552995
7265,551940
7268,551672
7270,552514
7272,553080
7274,552062
7276,552006
7278,552700
7281,552315
7283,553399
7285,552383
7287,552469
7289,553051
7291,553885
7293,552958
7297,553133
7299,553575
7301,553310
7303,554501
7305,553549
7307,553788
7310,554157
7312,553999
7314,554265
7316,554616
7318,554840
7320,554778
7323,555902
7325,555012
7327,555405
7329,555525
7331,555510
7333,555763
7335,556222
7339,556278
7341,556275
7343,557548
7345,556618
7347,557102
7349,556988
7352,557066
7354,558278
7356,558017
7358,557802
7360,557895
7362,559133
7365,558306
7367,558918
7369,558596
7371,558746
7373,560086
7375,559932
7377,559508
7380,559685
7383,560921
7385,560094
7387,560815
7389,560359
7391,560572
7394,561831
7396,560888
7398,561124
7400,561305
7402,562522
7404,561587
7407,562272
7409,561721
7411,561786
7413,562992
7425,562235
7425,562235
7426,562235
7428,562937
7430,562232
7432,562258
7434,563440
7435,562319
7437,562898
7439,562162
7441,562134
7443,563210
7445,562100
7447,562740
7449,561929
7451,561887
7453,562884
7455,561726
7457,562314
7459,561506
7461,561473
7463,562486
7465,561332
7468,561891
7470,561049
7472,561020
7474,562061
7476,560879
7478,561475
7480,560628
7482,561621
7484,560486
7486,561127
7488,560270
7491,560241
7493,561366
7495,560193
7497,560875
7499,560025
7501,561092
7504,559972
7506,560635
7508,559888
7511,559980
7513,561078
7515,559958
7517,560597
7520,559896
7522,560010
7524,559975
7526,560683
7528,559950
7530,560185
7533,561151
7535,560158
7537,560885
7539,560193
7541,560544
7543,560361
7546,561119
7548,560537
7550,560932
7553,561484
7555,560605
7557,561396
7559,560803
7562,561345
7564,561846
7566,561858
7568,561209
7570,561837
7572,562100
7575,561410
7577,562345
7579,561707
7581,562450
7583,562640
7585,562906
7588,562269
7590,563057
7592,563211
7595,562562
7597,563466
7599,562894
7601,563682
7604,563704
7606,563154
7608,563483
7610,564327
7612,564241
7614,563686
7617,564629
7619,564096
7621,565027
7623,564743
7625,564284
7627,564666
7630,565614
7632,565320
7634,564883
7636,565864
7639,565332
7641,566299
7643,565925
7646,565448
7648,566449
7650,566921
7652,566517
7654,566082
7656,567040
7659,566507
7661,567625
7663,567032
7665,566647
7667,567674
7669,568216
7672,567656
7674,567270
7676,568301
7678,567718
7681,568835
7683,568256
7685,567842
7688,568807
7690,568228
7692,568789
7694,568354
7696,569332
7698,568785
7701,569867
7703,569299
7705,568906
7707,569858
7709,569284
7711,569825
7714,569401
7716,570353
7718,569827
7720,570901
7723,570321
7725,569955
7727,570900
7730,570334
7732,571426
7734,570486
7736,571472
7738,570932
7740,572095
7743,571520
7745,571136
7747,572123
7749,571586
7751,572646
7753,572125
7756,572688
7758,572124
7760,573170
7762,572543
7764,572190
7767,573079
7769,572513
7772,573526
7774,572869
7776,573194
7778,572494
7780,573341
7782,572424
7785,571923
7787,572365
7789,571415
7791,572158
7793,570937
7795,570274
7798,569161
7800,569675
7802,568392
7804,567553
7806,567283
7809,566142
7812,566570
7814,565243
7816,564565
7818,563120
7820,563548
7822,562260
7824,561705
7827,561141
7829,560264
7831,560800
7833,559553
7835,559160
7837,558603
7840,558483
7842,557251
7844,557011
7846,556301
7848,555624
7851,556325
7854,555244
7856,555123
7858,554477
7860,554772
7862,553794
7864,553752
7866,553073
7869,552689
7871,553644
7873,552681
7875,552931
7877,552177
7879,551897
7882,552084
7884,552419
7886,551686
7888,551511
7890,552611
7892,551883
7896,552262
7898,551546
7900,551498
7902,551920
7904,552377
7906,551639
7908,551647
7911,552898
7913,552214
7915,552773
7917,552028
7919,552048
7921,553323
7924,553319
7926,552608
7928,552638
7930,553959
7932,553300
7934,553912
7938,553179
7940,553320
7942,554658
7944,554644
7946,553873
7948,554005
7950,555375
7953,554756
7955,555416
7957,554643
7959,554833
7961,556112
7963,555524
7966,555461
7968,555609
7970,556906
7972,556347
7974,557011
7976,556273
7980,556414
7982,557751
7984,557176
7986,557133
7988,557323
7990,558686
7992,558098
7995,558764
7997,558051
7999,558272
8001,559595
8003,559009
8005,559743
8008,559249
8010,560556
8012,559989
8014,560759
8016,559954
8018,560273
8022,561549
8024,560969
8026,561688
8028,561180
8030,562425
8032,561734
8034,562505
8037,561623
8039,561954
8041,562995
8043,562354
8045,563035
8047,562177
8050,563381
8052,562855
8054,563441
8056,562541
8058,562895
8060,563589
8064,562934
8066,563610
8068,562655
8070,563510
8072,562879
8074,563477
8077,562551
8079,563001
8081,563237
8083,562595
8085,563227
8087,562223
8089,562670
8092,562235
8094,562747
8096,561783
8098,562363
8100,562366
8102,561824
8105,562395
8108,561387
8110,562029
8112,561412
8114,562084
8116,561078
8118,561802
8121,561556
8123,561137
8125,561786
8127,560865
8129,561600
8131,561278
8134,561618
8136,560666
8138,561477
8140,561115
8142,560819
8144,561514
8147,560641
8150,561521
8152,561090
8154,561595
8156,560720
8158,561681
8161,561195
8163,561060
8165,561783
8167,560919
8169,561936
8171,561512
8173,561319
8176,561268
8178,562263
8180,561746
8182,561660
8184,562452
8186,561660
8189,562736
8192,562256
8194,562117
8196,562116
8198,563288
8200,562741
8203,562569
8205,563459
8207,562642
8209,563736
8211,563228
8213,563138
8215,564001
8218,564343
8220,563927
8222,563771
8224,564643
8226,563823
8228,564981
8231,564510
8233,564374
8236,565297
8238,565699
8240,565182
8242,565095
8245,565937
8247,565140
8249,566363
8251,565817
8253,565718
8255,566633
8257,565778
8260,566460
8262,566359
8264,567261
8266,566413
8268,567601
8270,567080
8273,567059
8275,567846
8278,567045
8280,567733
8282,567637
8284,568467
8287,567696
8289,568880
8291,568354
8293,568340
8295,569117
8297,568351
8299,569533
8302,569121
8304,569655
8306,568863
8308,570070
8310,569609
8312,569811
8315,570133
8317,569500
8320,570750
8322,570343
8324,570553
8326,569956
8329,571184
8331,570629
8333,570968
8335,571055
8337,570474
8339,571721
8341,571181
8344,571472
8346,570949
8348,572218
8350,571682
8352,572065
8354,571900
8357,571448
8359,572755
8361,572254
8364,572737
8366,571897
8368,573252
8371,572640
8373,573235
8375,572801
8377,572454
8379,573780
8381,573300
8383,573936
8386,573022
8388,574368
8390,573923
8392,574531
8394,573878
8396,573607
8399,575008
8401,574483
8403,575164
8406,574463
8408,575541
8410,574953
8413,575624
8415,574854
8417,574546
8419,575758
8421,575066
8423,575675
8425,574669
8428,575217
8430,574331
8432,574624
8434,573250
8436,572573
8438,573361
8441,572198
8443,572325
8445,570770
8448,569778
8450,569116
8452,569060
8455,567437
8457,566395
8459,566973
8461,565673
8463,565651
8465,563994
8467,563051
8470,562381
8472,562478
8474,560883
8476,560022
8478,560733
8480,559496
8483,559670
8485,558184
8487,557377
8489,558195
8492,557343
8494,555949
8497,555255
8499,556074
8501,555159
8503,555475
8505,554141
8507,553555
8509,554503
8512,554031
8514,552848
8516,552370
8518,553427
8520,552595
8522,553138
8525,552063
8527,551702
8529,552737
8531,552006
8534,551596
8536,551299
8539,552401
8541,551773
8543,552483
8545,551468
8547,551400
8549,552429
8552,551865
8554,551689
8556,551627
8558,552623
8560,552185
8562,552961
8564,552082
8567,552155
8569,553046
8571,552699
8573,553502
8576,552845
8578,553560
8581,553254
8583,554138
8585,553317
8587,553692
8589,554245
8591,554041
8594,554843
8596,554445
8598,554965
8600,554781
8602,555668
8604,554873
8606,555316
8609,555718
8611,555610
8613,556461
8615,555670
8617,556436
8620,556342
8623,557239
8625,556495
8627,557026
8629,557183
8631,557137
8633,558030
8636,557218
8638,557931
8640,557951
8642,558916
8644,558112
8646,558806
8648,558844
8651,558868
8653,559833
8655,559087
8657,559813
8659,559795
8662,560752
8665,559966
8667,560710
8669,560566
8671,560709
8673,561633
8675,560823
8678,561610
8680,561388
8682,562299
8684,561498
8686,562270
8688,561932
8690,561926
8693,562830
8695,561994
8697,562743
8699,562319
8701,563165
8704,562264
8707,562918
8709,562458
8711,562438
8713,563222
8715,562283
8717,562903
8720,562452
8722,563045
8724,562092
8726,562692
8728,562136
8730,562004
8732,562687
8735,561670
8737,562300
8739,561740
8741,561595
8743,561312
8745,561854
8749,561310
8751,561141
8753,561795
8755,560791
8757,561388
8759,560813
8762,560675
8764,560364
8766,561000
8768,560413
8770,560387
8772,561032
8774,560138
8777,560753
8779,560197
8781,560130
8783,560835
8785,560550
8787,560097
8791,560131
8793,560760
8795,559871
8797,560568
8799,560095
8801,560159
8804,560780
8806,560704
8808,560211
8810,560392
8812,560926
8814,560099
8816,560924
8819,560434
8821,560692
8823,561060
8825,560342
8827,560727
8829,561152
8833,561365
8835,560699
8837,561569
8839,561158
8841,561649
8843,561693
8846,561084
8848,561592
8850,562217
8852,562090
8854,561590
8856,562529
8858,562081
8861,562792
8863,562605
8865,562207
8867,563068
8869,563465
8871,563213
8875,562757
8877,563715
8879,563371
8881,564161
8883,563693
8885,563362
8888,564381
8890,564849
8892,564363
8894,564001
8896,565047
8898,564655
8900,565506
8903,564900
8905,564608
8907,565690
8909,565267
8911,565496
8913,565250
8916,566304
8919,565911
8921,566882
8923,566073
8925,565873
8927,566994
8930,566520
8932,566728
8934,566507
8936,567551
8938,567132
8940,568131
8943,567279
8945,567033
8947,568139
8949,567784
8951,568781
8953,567643
8955,568688
8958,568308
8961,569287
8963,568409
8965,568218
8967,569262
8969,568881
8972,569887
8974,568979
8976,569833
8978,569361
8980,570380
8982,569438
8985,569233
8987,570372
8989,569955
8991,570911
8993,569993
8995,570811
8997,570467
9000,571466
9003,570524
9005,570300
9007,571425
9009,571001
9011,572065
9014,571083
9016,570887
9018,571648
9020,572686
9022,571682
9024,571517
9027,572636
9029,572198
9031,573235
9033,572264
9035,572088
9037,572695
9039,573765
9042,572776
9044,572591
9047,573595
9049,573106
9051,574095
9053,573064
9056,572832
9058,573717
9060,573986
9062,572760
9064,572475
9066,572985
9069,572202
9071,572830
9073,571428
9075,570906
9077,571059
9079,570591
9081,568900
9084,568305
9086,568171
9089,567182
9091,567505
9093,565749
9095,565239
9098,564891
9100,563913
9102,562562
9104,562092
9106,561692
9108,560784
9111,561209
9113,559549
9115,559242
9117,558725
9119,558014
9121,556916
9123,556809
9126,556246
9128,555660
9131,556257
9133,554739
9135,554754
9137,554135
9140,553664
9142,554381
9144,553130
9146,552577
9148,552211
9150,552988
9153,551741
9155,552026
9157,551423
9159,551101
9161,552061
9163,551241
9165,550772
9168,550609
9170,551572
9172,550496
9175,550973
9177,550458
9179,550407
9182,551504
9184,550426
9186,550464
9188,550490
9190,551636
9192,550673
9195,551334
9197,550808
9199,550879
9201,552049
9203,551106
9205,551290
9207,551461
9210,552597
9212,551704
9214,552463
9217,551949
9219,552121
9221,553300
9224,552385
9226,553190
9228,552893
9230,554080
9232,553184
9234,554015
9237,553519
9239,553739
9241,554967
9243,554087
9245,554858
9247,554537
9249,555747
9252,554886
9254,555637
9256,555187
9259,555419
9261,556632
9263,555788
9266,556599
9268,556102
9270,557472
9272,556682
9274,557463
9276,557027
9279,557285
9281,558515
9283,557660
9285,558504
9287,558111
9289,559504
9292,558650
9294,559545
9296,559072
9298,559345
9300,560524
9303,559629
9305,560448
9308,560006
9310,560201
9312,560476
9314,561207
9316,560727
9318,560960
9321,561905
9323,560988
9325,561793
9327,561238
9329,561511
9331,561350
9334,561991
9336,561359
9338,561753
9340,562287
9342,561312
9345,561997
9347,561404
9350,561704
9352,561982
9354,561797
9356,561044
9358,561482
9360,561563
9363,560671
9365,561242
9367,560582
9369,561012
9371,560968
9373,560699
9376,559977
9378,560530
9380,560351
9382,559499
9384,560176
9387,559493
9389,559986
9392,559775
9394,558950
9396,558974
9398,559606
9400,559191
9402,558520
9405,559221
9407,558521
9409,559207
9411,558757
9413,558116
9415,558132
9418,558906
9420,558407
9422,557799
9424,558585
9426,558012
9428,558873
9431,558263
9434,557711
9436,558554
9438,558818
9440,558272
9442,557810
9444,558668
9447,558097
9449,559003
9451,558430
9453,558030
9455,558841
9457,559283
9460,558730
9462,558344
9464,559210
9466,558705
9468,559660
9470,559040
9473,558704
9476,559677
9478,559192
9480,559650
9482,559275
9484,560183
9486,559758
9489,560756
9491,560175
9493,559812
9495,560696
9497,560279
9499,560712
9502,560312
9504,561261
9506,560812
9508,561874
9510,561319
9512,560939
9515,561915
9518,561438
9520,562496
9522,561593
9524,562531
9526,562100
9528,563130
9531,562536
9533,562258
9535,563135
9537,562681
9539,563769
9541,563156
9544,563772
9546,563358
9548,564398
9550,563777
9552,563500
9554,564407
9556,563956
9560,564979
9562,564367
9564,564929
9566,564512
9568,565543
9570,564977
9573,564775
9575,565454
9577,565059
9579,566155
9581,565505
9583,565371
9586,565607
9588,566704
9590,566089
9592,566034
9594,566444
9596,566131
9598,567247
9602,566613
9604,566651
9606,566710
9608,567819
9610,567202
9612,567304
9615,567452
9617,567222
9619,568377
9621,567699
9623,567911
9625,567909
9628,569026
9630,568329
9632,568549
9634,568421
9636,568318
9638,569466
9640,568812
9644,569146
9646,568932
9648,570008
9650,569377
9652,569721
9654,569333
9657,569275
9659,570428
9661,569733
9663,569994
9665,569456
9667,569284
9670,569451
9672,569650
9674,568861
9676,568559
9678,569393
9680,568344
9683,568331
9686,567237
9688,566788
9690,566193
9692,566110
9694,564759
9696,564197
9699,564704
9701,563401
9703,563262
9705,561817
9707,561222
9709,561683
9712,560196
9714,558788
9716,558245
9718,558733
9720,557476
9722,557384
9725,555968
9728,555472
9730,556108
9732,554824
9734,553476
9736,553054
9738,553708
9741,552589
9743,552679
9745,551426
9747,551030
9749,551798
9751,550706
9754,549865
9756,549620
9758,550406
9760,549386
9762,549696
9764,548671
9767,548550
9769,549476
9772,548555
9774,547999
9776,547912
9778,548904
9780,548088
9783,548548
9785,547668
9787,547659
9789,548783
9791,548015
9793,548463
9796,547787
9798,548863
9800,548219
9802,548709
9804,547971
9806,548070
9809,549157
9811,548487
9814,549117
9816,548590
9818,549657
9820,549086
9822,549758
9825,548989
9827,549270
9829,550334
9831,549778
9833,550460
9835,549724
9838,551051
9840,550483
9842,551180
9844,550488
9846,550948
9848,551736
9851,551234
9853,551988
9856,551332
9858,552467
9860,551979
9862,552752
9864,552097
9867,552744
9869,553201
9871,552829
9873,553637
9875,552967
9877,553675
9880,553782
9882,554487
9884,553850
9886,554640
9888,554943
9890,554651
9893,555509
9895,554850
9897,555737
9900,555645
9902,556465
9904,555813
9906,556702
9909,556763
9911,556565
9913,557336
9915,556667
9917,557624
9919,557514
9922,558135
9924,557347
9926,558229
9928,557990
9930,557788
9932,558549
9935,557754
9937,558688
9939,558332
9942,558800
9944,557952
9946,558837
9948,558390
9951,558104
9953,558800
9955,557970
9957,558863
9959,558237
9961,557931
9964,557726
9966,558630
9968,557961
9970,557657
9972,558291
9974,557353
9977,558267
9979,557646
9981,557269
9984,557013
9986,557945
9988,557307
9990,556908
9993,557590
9995,556679
9997,557585
9999,556879
10001,556534
10004,556356
10006,557324
10008,556656
10011,556309
10013,556995
10015,556110
10018,556444
10020,556119
10022,556844
10025,555964
10028,556959
10030,556072
10032,556807
10035,555916
10037,556976
10039,556369
10042,556879
10044,556034
10046,557057
10049,556530
10051,556311
10053,556266
10056,557403
10058,556825
10060,556627
10063,557420
10065,556603
10067,557185
10071,557053
10073,557837
10075,557015
10078,558120
10080,557607
10082,558212
10085,557515
10087,558660
10089,558170
10092,558716
10094,558020
10096,559183
10099,558712
10101,558800
10103,558631
10106,559852
10108,559349
10110,559524
10114,559808
10116,559234
10118,559946
10120,560237
10123,560290
10125,559842
10127,561050
10130,560919
10132,560888
10134,560415
10137,561615
10139,561151
10141,561379
10144,560939
10146,562195
10148,561742
10151,562127
10153,561472
10156,562844
10159,562355
10161,562755
10163,562419
10166,562049
10168,562870
10170,563421
10173,562952
10175,562626
10177,563938
10180,564024
10182,563448
10184,563174
10187,564476
10189,563957
10191,563918
10194,563694
10196,564998
10199,564498
10202,565186
10204,564192
10206,565528
10208,565002
10211,565646
10213,564909
10215,564639
10218,565522
10220,566141
10222,565422
10225,565198
10227,566565
10229,566649
10232,565924
10234,565695
10236,566981
10240,566538
10242,566483
10244,566267
10247,567606
10249,567155
10251,567800
10254,566821
10256,568150
10258,567675
10261,568356
10263,567538
10265,567390
10268,568096
10270,568814
10272,567991
10275,567723
10277,569025
10279,569011
10283,568140
10285,567810
10287,568911
10290,568251
10292,567501
10294,567022
10296,567959
10299,567062
10301,567214
10303,565903
10306,565898
10308,564771
10310,564797
10313,563268
10315,562443
10317,561809
10320,561766
10322,560202
10324,559349
10328,559877
10330,558636
10332,557069
10335,556268
10337,556795
10339,555598
10342,554099
10344,553513
10346,553958
10349,552856
10351,552935
10353,551581
10356,551392
10358,550468
10360,550662
10363,549321
10365,549055
10368,548523
10371,548840
10373,547649
10375,547579
10378,547767
10380,547596
10382,546498
10384,546530
10387,546722
10389,546208
10391,545810
10394,545956
10396,546081
10398,545727
10401,546332
10403,545402
10405,545887
10408,545608
10411,546319
10413,545476
10416,545877
10418,545768
10420,546514
10423,545695
10425,546322
10427,546259
10430,546959
10432,546205
10434,546845
10437,546774
10439,546741
10441,546765
10444,547481
10446,547383
10448,547413
10451,548253
10454,547502
10456,548057
10459,548106
10461,548977
10463,548244
10466,549026
10468,548812
10470,549725
10472,548985
10475,549726
10477,549516
10479,550397
10482,549705
10484,550479
10486,550160
10489,550249
10491,550404
10493,551274
10497,550943
10499,551081
10501,551883
10504,551174
10506,551696
10508,551760
10511,552629
10513,551949
10515,552821
10518,552652
10520,553516
10522,552814
10525,553696
10527,553399
10529,554336
10532,553615
10534,554442
10536,554175
10540,554275
10542,554322
10544,555202
10547,554816
10549,554885
10551,555685
10554,554921
10556,555347
10558,555362
10560,556085
10563,555218
10565,556054
10567,555567
10570,556271
10572,555441
10574,556126
10577,555610
10579,556315
10582,555422
10585,556105
10587,555566
10589,555618
10592,556157
10594,555981
10596,555393
10599,555496
10601,555854
10603,554921
10606,555086
10608,555235
10610,555411
10613,554612
10615,555378
10617,555048
10620,555103
10622,554368
10625,555095
10628,554627
10630,554791
10632,554081
10635,554903
10637,554329
10639,554840
10642,554645
10644,554836
10646,554340
10648,554812
10651,554433
10653,553941
10655,554377
10658,554915
10660,554506
10662,554023
10665,554982
10668,555166
10670,554586
10673,554203
10675,555202
10677,554707
10680,554877
10682,554550
10684,555463
10687,555050
10689,555873
10691,555192
10694,555885
10696,555477
10698,556320
10701,555594
10703,555279
10705,556004
10708,556879
10711,556144
10713,555864
10716,556946
10718,557454
10720,556627
10723,556367
10725,557511
10727,557152
10729,557183
10732,556983
10734,558134
10736,557690
10739,558660
10741,557817
10743,558695
10746,558344
10748,559279
10750,558426
10754,558192
10756,558974
10758,559938
10761,559076
10763,558853
10765,559977
10768,560512
10770,559590
10772,559467
10775,560585
10777,560179
10779,560281
10782,560027
10784,561168
10786,560732
10789,561726
10791,560765
10793,561650
10797,561263
10799,562263
10801,561329
10804,561120
10806,561872
10808,562806
10811,561936
10813,561690
10815,562843
10817,563443
10820,562453
10822,562284
10824,563401
10827,562926
10829,563972
10831,562784
10834,563906
10836,563461
10839,564485
10842,563493
10844,564427
10846,563941
10849,564935
10851,563978
10853,564000
10856,564423
10858,565447
10860,564481
10863,564549
10865,565311
10867,565957
10870,565024
10872,565218
10874,565748
10877,565489
10880,566578
10882,565888
10885,566315
10887,566108
10889,567146
10892,566239
10894,566820
10896,566668
10899,567690
10901,566720
10903,567061
10905,567052
10908,568064
10910,567073
10912,567382
10915,567353
10917,568018
10919,566876
10923,567060
10925,566751
10927,566391
10930,567161
10932,565917
10934,565294
10937,564770
10939,565288
10941,563783
10944,562882
10946,562244
10948,562657
10951,561088
10953,560977
10955,559367
10958,559777
10960,558078
10962,557967
10966,557006
10968,556776
10970,555176
10973,555117
10975,554050
10977,553518
10980,554005
10982,552567
10984,551550
10987,551052
10989,551642
10991,550189
10993,549528
10996,549064
10998,549764
11000,548413
11003,548736
11005,547518
11008,548384
11011,547112
11013,547485
11015,546752
11018,547450
11020,546225
11022,546832
11025,546070
11027,546019
11029,546945
11032,546443
11034,545847
11036,545789
11039,546773
11041,545804
11043,545842
11046,545822
11048,546872
11051,545983
11054,546629
11056,546240
11058,547356
11061,546402
11063,547147
11065,546680
11068,547922
11070,547029
11072,547788
11075,547361
11077,547498
11079,548579
11081,548483
11084,548043
11086,548235
11088,549345
11091,548445
11094,548819
11096,549033
11099,550022
11101,549188
11103,550000
11106,549815
11108,550736
11110,549929
11113,550701
11115,550263
11117,550697
11120,550644
11122,551455
11124,551089
11127,551541
11129,552147
11131,552285
11134,551869
11137,552423
11139,552854
11142,552216
11144,552795
11146,553332
11149,553725
11151,553140
11153,553970
11156,554286
11158,554501
11160,553932
11163,554836
11165,554438
11167,555149
11169,554659
11172,555565
11174,555143
11176,555869
11180,555721
11182,556120
11184,555597
11187,556345
11189,556148
11191,555601
11194,555932
11196,556625
11198,556326
11201,555807
11203,556590
11205,556670
11208,556210
11210,555752
11212,556529
11215,555941
11217,556715
11219,555577
11223,556322
11225,555712
11227,556511
11230,555879
11232,556096
11234,555419
11237,556211
11239,555520
11241,554938
11244,555092
11246,555876
11248,555206
11250,554650
11253,555367
11255,555557
11257,554838
11260,554377
11262,555073
11265,554494
11268,555363
11270,554136
11272,554875
11275,554295
11277,555176
11279,554386
11282,554747
11284,554217
11286,555087
11289,554400
11291,553989
11293,554287
11296,555249
11298,554568
11300,554183
11303,555010
11305,555467
11308,554815
11311,554466
11313,555289
11315,554877
11318,555838
11320,554861
11322,555788
11325,555236
11327,556279
11329,555598
11332,556104
11334,555693
11336,556705
11338,556098
11341,555816
11343,556216
11345,557302
11348,556676
11351,556356
11353,557249
11356,557833
11358,557216
11360,557018
11363,557731
11365,557407
11367,558407
11370,557731
11372,558250
11374,557997
11377,559054
11379,558412
11381,558857
11384,558562
11386,559703
11388,559025
11392,559165
11394,559215
11396,560333
11399,559690
11401,559769
11403,559943
11406,560908
11408,560293
11410,560475
11413,560466
11415,560312
11417,561479
11420,561077
11422,561033
11424,560942
11426,562072
11429,561367
11431,561557
11433,561523
11437,562639
11439,562007
11441,562351
11444,562019
11446,563190
11448,562525
11451,562953
11453,562541
11455,562565
11458,563040
11460,563442
11462,562944
11465,563043
11467,564205
11469,563995
11472,563486
11474,563554
11476,564763
11480,564114
11482,563996
11484,564073
11487,565332
11489,564656
11491,565208
11494,564645
11496,565882
11498,565255
11501,565743
11503,565115
11505,565174
11508,565721
11510,566339
11512,565605
11514,565720
11517,566875
11520,566755
11522,566037
11525,566100
11527,567299
11529,566461
11532,566054
11534,566071
11536,567046
11539,566105
11541,566504
11543,565165
11546,566001
11548,564893
11550,565142
11553,563912
11555,563518
11557,562967
11560,563015
11563,561613
11565,561145
11568,561686
11570,560383
11572,559012
11575,558478
11577,559004
11579,557657
11582,556183
11584,555742
11586,556293
11589,554942
11591,554999
11593,553247
11596,553834
11598,552542
11600,552638
11602,551332
11606,551062
11608,550500
11610,550716
11613,549632
11615,549457
11617,550036
11620,549327
11622,548273
11624,548326
11627,548844
11629,547923
11631,547339
11634,547535
11636,548059
11638,547255
11641,547750
11643,547213
11645,547606
11649,546984
11651,547577
11653,546781
11656,547219
11658,547020
11660,547718
11663,546955
11665,547570
11667,547785
11670,548044
11672,547305
11674,548035
11677,548163
11679,547859
11681,547922
11684,548756
11686,548800
11688,548501
11691,549279
11694,548531
11696,549422
11698,549174
11701,550031
11703,549353
11705,550259
11708,549959
11710,550812
11712,550137
11715,551157
11717,550936
11719,551568
11722,550962
11724,551999
11726,551711
11729,551523
11731,551742
11734,552800
11737,552573
11739,552385
11741,553303
11744,552633
11746,553441
11748,553357
11751,554288
11753,553583
11755,554781
11758,554362
11760,555245
11762,554618
11765,555753
11767,555457
11769,556231
11772,555572
11774,556640
11777,556320
11779,556129
11782,556341
11784,557424
11786,557037
11789,556834
11791,557665
11793,556982
11796,557523
11798,557255
11800,558024
11803,557285
11805,558296
11807,557492
11810,558179
11812,557372
11814,558363
11817,557751
11820,558086
11822,557275
11825,558188
11827,557565
11829,557245
11832,556981
11834,557966
11836,557317
11839,556948
11841,557568
11843,556677
11846,556905
11848,556604
11850,557214
11853,556318
11855,557246
11857,556254
11859,556849
11863,555900
11865,556905
11867,556196
11870,556467
11872,555595
11874,556536
11877,555976
11879,555760
11881,555373
11884,556406
11886,555787
11888,555681
11891,555947
11893,555261
11895,555747
11898,555777
11900,555921
11902,555266
11906,556422
11908,555934
11910,555928
11913,555442
11915,556607
11917,556038
11920,556158
11922,555614
11924,556813
11927,556356
11929,556583
11931,555995
11934,557225
11936,556676
11938,557019
11941,556836
11943,556495
11945,557250
11948,557615
11951,557271
11953,556956
11955,558239
11958,558260
11960,557821
11962,557513
11965,558811
11967,558362
11969,558368
11972,558097
11982,558717
11983,560053
11985,560053
11987,559558
11988,560140
11991,559496
11993,559299
11995,560637
11997,560181
11999,560711
12001,560042
12003,559918
12005,561224
12007,560819
12009,561394
12011,560683
12013,560560
12015,561892
12017,561411
12019,561290
12022,561077
12024,562450
12026,561966
12029,562582
12032,561886
12034,562984
12036,562540
12039,563157
12041,562376
12043,562232
12046,563138
12048,563771
12050,562965
12053,562847
12055,564196
12057,564321
12060,563547
12062,563356
12064,564662
12067,564158
12069,564047
12071,563902
12075,565232
12077,564737
12079,565336
12082,564578
12084,565750
12086,565323
12089,565882
12091,565081
12093,565037
12096,565853
12098,566465
12100,565645
12103,565523
12105,566803
12107,566967
12110,566118
12112,566067
12114,567269
12118,566783
12120,566557
12122,566472
12124,567614
12127,567079
12129,567636
12131,566774
12134,567639
12136,567016
12138,567498
12141,566447
12143,566367
12145,566224
12148,566496
12150,565310
12152,565079
12155,565298
12157,564627
12160,563256
12163,562941
12165,562865
12167,561948
12170,560614
12172,560311
12174,560044
12177,559146
12179,559174
12181,557715
12184,557167
12186,556335
12188,556392
12191,554975
12193,554860
12195,553641
12198,553766
12200,552401
12203,552361
12206,551906
12208,551489
12210,550228
12212,550380
12215,549921
12217,549418
12219,548573
12222,548791
12224,548340
12226,547971
12229,548388
12231,547330
12233,547266
12236,546985
12238,547465
12240,546524
12243,547013
12246,546481
12248,547094
12251,546216
12253,546788
12255,546366
12258,547019
12260,546200
12262,546922
12265,546522
12267,546509
12269,547232
12272,547209
12274,546929
12276,546911
12279,547672
12281,546871
12283,547316
12286,547450
12289,548193
12291,547509
12294,548356
12296,548108
12298,548888
12300,548195
12303,549079
12305,548747
12307,549570
12310,548884
12312,549804
12314,549463
12317,549558
12319,550296
12321,550566
12324,550228
12326,550316
12328,551060
12332,550391
12334,550977
12336,551087
12339,551832
12341,551181
12343,552086
12346,551829
12348,552606
12350,551927
12353,552870
12355,552565
12357,553464
12360,552783
12362,553784
12364,553426
12367,553605
12369,554367
12371,554689
12375,554377
12377,554596
12379,555333
12382,554628
12384,555238
12386,555529
12388,556103
12391,555436
12393,556402
12395,556310
12398,556660
12400,556011
12402,556955
12405,556463
12407,556973
12409,556322
12412,557244
12414,556737
12417,557146
12420,557078
12422,557368
12424,556831
12427,557247
12429,556992
12431,556363
12434,556755
12436,557254
12438,556900
12441,556280
12443,557173
12445,557138
12448,556631
12450,556055
12452,556988
12455,556365
12457,556292
12460,555807
12463,556706
12465,556144
12467,556709
12469,556050
12472,556471
12474,555936
12476,556605
12479,555816
12481,555387
12483,555763
12486,556440
12488,555654
12490,555261
12493,556247
12495,556449
12497,555532
12500,555235
12503,556199
12505,555729
12508,555624
12510,555320
12512,556349
12515,555920
12517,556756
12519,555811
12522,556653
12524,556180
12526,557011
12529,556120
12531,555872
12533,556561
12536,557497
12538,556603
12540,556362
12544,557476
12546,557995
12548,557078
12551,556879
12553,558002
12555,557552
12557,558504
12560,557446
12562,558550
12564,558168
12567,559078
12569,558191
12571,559172
12574,558726
12576,559691
12578,558811
12581,558643
12583,559314
12585,560351
12589,559400
12591,559293
12593,560424
12596,561026
12598,560110
12600,559942
12603,561042
12605,560616
12607,561644
12610,560620
12612,561708
12614,561319
12617,562285
12619,561380
12621,562315
12624,561885
12626,562897
12628,561957
12632,561869
12634,562520
12636,563502
12639,562536
12641,562472
12643,563518
12645,564122
12648,563145
12650,563176
12652,563971
12655,563614
12657,564617
12659,563821
12662,564438
12664,564105
12666,565185
12669,564211
12672,564900
12674,564590
12677,565609
12679,564712
12681,564967
12684,565111
12686,566161
12688,565203
12691,565522
12693,565752
12695,566626
12698,565703
12700,566144
12702,566233
12705,566097
12707,567136
12709,566667
12712,566708
12715,566578
12717,567631
12720,566741
12722,567204
12724,567057
12727,568218
12729,567297
12731,567844
12734,567710
12736,568784
12738,567853
12740,568491
12743,568187
12745,569365
12747,568447
12750,569066
12752,568733
12754,568785
12758,569839
12760,569484
12762,569075
12765,568971
12767,570002
12769,568919
12772,568876
12774,568721
12776,569589
12779,568327
12781,568637
12783,567478
12786,568168
12788,566774
12790,566910
12793,565948
12795,565879
12797,564373
12801,564422
12803,563291
12805,562672
12808,563019
12810,561411
12812,560185
12815,559524
12817,559910
12819,558309
12821,557161
12824,556556
12826,556934
12828,555327
12831,555376
12833,553753
12835,554226
12838,552744
12840,552890
12843,551878
12846,551475
12848,550553
12850,550828
12853,549977
12855,549590
12857,550201
12860,549283
12862,548501
12864,548212
12867,549020
12869,547804
12871,547533
12874,547450
12876,548241
12878,547140
12881,547618
12883,546945
12886,547845
12889,546829
12891,547467
12893,546855
12896,547066
12898,546867
12900,547578
12903,547065
12905,547399
12907,548037
12909,547936
12912,547518
12914,547861
12916,548412
12919,547698
12921,548112
12923,548616
12926,549032
12929,548445
12931,549222
12934,549361
12936,549635
12938,549011
12941,549834
12943,549438
12945,550078
12948,549664
12950,550521
12952,550139
12955,550789
12957,550826
12959,551138
12962,550765
12964,551488
12966,551498
12969,551011
12972,551447
12974,552216
12977,552046
12979,551596
12981,552493
12984,552979
12986,552695
12988,552282
12991,553198
12993,552840
12995,553759
12997,553083
13000,554040
13002,553708
13004,554713
13007,554271
13009,554958
13011,554619
13015,555515
13017,555115
13019,554787
13022,555340
13024,556297
13026,555825
13029,555479
13031,556400
13033,556967
13036,556357
13038,556033
13040,556913
13043,556525
13045,557392
13047,556397
13050,557315
13052,556806
13054,557729
13058,557064
13060,557446
13062,556931
13065,557784
13067,557095
13069,556565
13072,556818
13074,557704
13076,556958
13078,556367
13081,557176
13083,557532
13085,556671
13088,556207
13090,556977
13092,556401
13095,557270
13097,555962
13100,556776
13103,556126
13105,557008
13107,556231
13110,556456
13112,555890
13114,556744
13117,555987
13119,555548
13121,555764
13124,556672
13126,555873
13128,555473
13131,556165
13133,555638
13135,555814
13138,555452
13140,556232
13143,555696
13146,556668
13148,555686
13150,556394
13153,555944
13155,556868
13157,556199
13160,556549
13162,556188
13164,557227
13166,556469
13169,556452
13171,556585
13173,557637
13176,556978
13178,557003
13180,557245
13184,557035
13186,557451
13188,557621
13191,557719
13193,557611
13195,558691
13198,558239
13200,558240
13202,558139
13205,559274
13207,558624
13209,558794
13212,558783
13214,559954
13216,559269
13219,559639
13221,559384
13223,560551
13227,559932
13229,560377
13231,560062
13234,560071
13236,560600
13238,561039
13241,560708
13243,560728
13245,561988
13248,561793
13250,561316
13252,561332
13254,562589
13257,561896
13259,561907
13261,561985
13264,563237
13266,562516
13268,563086
13272,562571
13274,563809
13276,563141
13279,563742
13281,563047
13283,563229
13286,563755
13288,564344
13290,563625
13293,563794
13295,564935
13297,564850
13300,564135
13302,564246
13304,565489
13307,564772
13309,564649
13312,564781
13315,566005
13317,565291
13319,565894
13322,565292
13324,566501
13326,565736
13329,566329
13331,565662
13333,565810
13336,566249
13338,566897
13340,566177
13342,566279
13345,567465
13347,567403
13349,566640
13352,566741
13355,567979
13357,567216
13360,567171
13362,567333
13364,568580
13367,567806
13369,568432
13371,567757
13374,569131
13376,568399
13378,569070
13381,568411
13383,568638
13385,569007
13388,569668
13390,568916
13392,569114
13395,570192
13398,570071
13400,569245
13403,569427
13405,570421
13407,569551
13410,569103
13412,569320
13414,569919
13417,568936
13419,569273
13421,568179
13424,568535
13426,567400
13428,567596
13430,566262
13433,566237
13435,565031
13437,565092
13441,563686
13443,563654
13445,563370
13448,562217
13450,560774
13452,560734
13455,560364
13457,559182
13459,557905
13462,557943
13464,557496
13466,556328
13469,556497
13471,555137
13473,554847
13476,553893
13478,554106
13480,552861
13484,553177
13486,551846
13488,552231
13491,551143
13493,551606
13495,551038
13498,550809
13500,549779
13502,550434
13505,549976
13507,549378
13509,549027
13512,549779
13514,549283
13516,548794
13518,549470
13521,548602
13523,549012
13526,548631
13529,549381
13531,548568
13533,549546
13536,548823
13538,549654
13540,548840
13543,549893
13545,549506
13547,550108
13550,549430
13552,550444
13554,549998
13557,549836
13559,550038
13561,551182
13564,550809
13566,550535
13569,551433
13572,550766
13574,551560
13576,551293
13579,552273
13581,551673
13583,552784
13586,552224
13588,553076
13590,552442
13593,553593
13595,553224
13597,553884
13600,553251
13602,554415
13604,554024
13606,553807
13609,554144
13612,555277
13614,554834
13617,554699
13619,555624
13621,554974
13624,555760
13626,555621
13628,556557
13631,555957
13633,557112
13635,556540
13638,557571
13640,556993
13642,558145
13645,557777
13647,558527
13649,557923
13652,559161
13655,558682
13657,558575
13660,558758
13662,559932
13664,559515
13667,559488
13669,560096
13671,559435
13674,560107
13676,560049
13678,560476
13681,559797
13683,560927
13685,560407
13687,560586
13690,559912
13692,561068
13694,560436
13698,560512
13700,559924
13702,560997
13705,560388
13707,560457
13709,560322
13712,560794
13714,560166
13716,560237
13719,559944
13721,559381
13723,559795
13726,559968
13728,559560
13730,559006
13733,560050
13735,559641
13737,559080
13741,558596
13743,559691
13745,559057
13748,558782
13750,558278
13752,559378
13755,558731
13757,559033
13759,558382
13762,559167
13764,558586
13766,558944
13769,558292
13771,557916
13773,558563
13775,558944
13778,558233
13780,557930
13783,559190
13786,559118
13788,558375
13790,558132
13793,559351
13795,558823
13797,558610
13800,558368
13802,559596
13804,559140
13807,559701
13809,558896
13811,560033
13814,559582
13816,560084
13818,559415
13821,559206
13824,560060
13826,560612
13829,559924
13831,559803
13833,561180
13836,561234
13838,560505
13840,560409
13843,561741
13845,561266
13847,561173
13850,561126
13852,562473
13854,561932
13857,562540
13859,561827
13861,563066
13863,562607
13867,563224
13869,562477
13871,562409
13874,563274
13876,563868
13878,563153
13881,563087
13883,564408
13885,564598
13888,563772
13890,563783
13892,565014
13895,564568
13897,564417
13899,564383
13902,565681
13904,565189
13906,565817
13910,565042
13912,566237
13914,565760
13917,566383
13919,565638
13921,565737
13924,566293
13926,567022
13928,566205
13931,566406
13933,567249
13935,567504
13938,566776
13940,567007
13942,567724
13945,567418
13947,568019
13949,567639
13952,568182
13955,567893
13957,568583
13959,567816
13962,568626
13964,568472
13966,569083
13969,568338
13971,568800
13973,568954
13976,569618
13978,568928
13980,569481
13983,569695
13985,570152
13987,569445
13990,570103
13992,570149
13995,570059
13998,570738
14000,570633
14002,570582
14005,570462
14007,571191
14009,570382
14012,570783
14014,570675
14016,571313
14019,570429
14021,570915
14023,570305
14026,570741
14028,569652
14030,570100
14033,569410
14035,569321
14038,568036
14040,568310
14043,567474
14045,566924
14047,567082
14050,565909
14052,564874
14054,564212
14057,564335
14059,562932
14061,562093
14064,561354
14066,561462
14068,560074
14071,560220
14073,558545
14075,558687
14078,557257
14081,557585
14083,556654
14086,556238
14088,554879
14090,555216
14093,554307
14095,553867
14097,554172
14100,553444
14102,552586
14104,552215
14107,552557
14109,551497
14111,551344
14114,551085
14116,551562
14118,550544
14121,551212
14124,550361
14126,550956
14128,550016
14131,550790
14133,550240
14135,550766
14138,549928
14140,550771
14142,550228
14145,550256
14147,550893
14149,551028
14152,550610
14154,550619
14156,551304
14159,550589
14161,551102
14163,551261
14167,551874
14169,551175
14171,552217
14174,552076
14176,552620
14178,551939
14181,552999
14183,552575
14185,553334
14188,552783
14190,553786
14192,553420
14195,553845
14197,554078
14199,554618
14202,554234
14204,554751
14206,554895
14210,554333
14212,555074
14214,555671
14216,555721
14219,555241
14221,556353
14223,556682
14226,556497
14228,556135
14230,557371
14233,557020
14235,557683
14237,557179
14240,558381
14242,558057
14244,558808
14247,558498
14249,559439
14252,559092
14255,559946
14257,559538
14259,559289
14262,560150
14264,560991
14266,560409
14269,560187
14271,561381
14273,561783
14276,561119
14278,560902
14280,562045
14283,561563
14285,562427
14287,561396
14290,562473
14292,561976
14295,562786
14297,561926
14300,562641
14302,562110
14304,562889
14307,561976
14309,561590
14311,562042
14314,562825
14316,561871
14318,561449
14321,562550
14323,562649
14325,561581
14328,561209
14330,562218
14332,561587
14336,562394
14338,560941
14340,561896
14343,561293
14345,562100
14347,560991
14350,561677
14352,561008
14354,561860
14357,560788
14359,560392
14361,560855
14364,561571
14366,560575
14368,560199
14371,561350
14373,561582
14375,560560
14379,560203
14381,561325
14383,560719
14385,561621
14388,560336
14390,561444
14392,560905
14395,561767
14397,560782
14399,561631
14402,561136
14404,561983
14406,561094
14409,560931
14411,561535
14413,562438
14416,561459
14418,561391
14420,562460
14424,562994
14426,562058
14428,562031
14431,562960
14433,562550
14435,563482
14438,562619
14440,563515
14442,563086
14445,564158
14447,563246
14449,564071
14452,563771
14454,564702
14456,563893
14459,564154
14461,564478
14464,565534
14467,564569
14469,564890
14471,565356
14473,566195
14476,565277
14478,565645
14480,565943
14483,565810
14485,566844
14487,566460
14490,566599
14492,566466
14494,567550
14497,566693
14499,567255
14501,567133
14504,568244
14507,567317
14509,567872
14512,567773
14514,568893
14516,568018
14519,568596
14521,568456
14523,568429
14526,568600
14528,569232
14530,568972
14533,569000
14535,570103
14537,569820
14540,569504
14542,569547
14544,570642
14547,569705
14550,570059
14552,570042
14555,571139
14557,570289
14559,570922
14561,570590
14564,571662
14566,570713
14568,571438
14571,570997
14573,571076
14575,571258
14578,571977
14580,571508
14582,571551
14585,572640
14587,572373
14589,571945
14593,572039
14595,573119
14597,572184
14600,572484
14602,572503
14604,573574
14607,572641
14609,573446
14611,573041
14614,574104
14616,573182
14618,573891
14621,573506
14623,573587
14625,573717
14628,574543
14630,574111
14632,574126
14636,575165
14638,575060
14640,574604
14643,574726
14645,575785
14647,574850
14649,575089
14652,575154
14654,576109
14656,575082
14659,575792
14661,575134
14663,575964
14666,574777
14668,575336
14670,574564
14673,574311
14675,573645
14678,573867
14681,572959
14683,572527
14685,572794
14688,571399
14690,570228
14692,569830
14695,569769
14697,568195
14699,567057
14702,566684
14704,566426
14706,564842
14709,564877
14711,563343
14713,562928
14716,561453
14718,561647
14721,560458
14724,560254
14726,558497
14728,558707
14731,557565
14733,557543
14735,557088
14737,556182
14740,555208
14742,555384
14744,554823
14747,553804
14749,553351
14751,553629
14754,553078
14756,552245
14758,552807
14761,552485
14764,551980
14766,551228
14769,551866
14771,551147
14773,551781
14776,550650
14778,551368
14780,550843
14783,551562
14785,551028
14787,551297
14790,550781
14792,551705
14794,551143
14797,550717
14799,551128
14801,552029
14804,551489
14807,551148
14809,552070
14812,551592
14814,551979
14816,551684
14819,552617
14821,552300
14823,553285
14825,552415
14828,553381
14830,553022
14832,553954
14835,553391
14837,554050
14839,553690
14842,554658
14844,554094
14846,553731
14850,554388
14852,555368
14854,554783
14857,554465
14859,555407
14861,555032
14864,555432
14866,555083
14868,556018
14871,555660
14873,556683
14875,555791
14878,556763
14880,556346
14882,557489
14885,556801
14887,557500
14889,557096
14893,558183
14895,557520
14897,557289
14900,557931
14902,559121
14904,558468
14906,558294
14909,559211
14911,558873
14913,559332
14916,559133
14918,560077
14920,559705
14923,560778
14925,559961
14927,560729
14930,560327
14932,561398
14935,560690
14938,561258
14940,560871
14942,561931
14945,561214
14947,561084
14949,561157
14952,562214
14954,561432
14956,561361
14959,561650
14961,561327
14963,561487
14966,561450
14968,561615
14970,561280
14973,562224
14976,561421
14978,561433
14981,561165
14983,562147
14985,561254
14988,561155
14990,560932
14992,561926
14994,561062
14997,561170
14999,560744
15001,561684
15004,560880
15006,561066
15008,560721
15011,560524
15013,560725
15015,560956
15019,560543
15021,560387
15023,561411
15026,560926
15028,560429
15030,560353
15033,561417
15035,560600
15037,560470
15040,560418
15042,561536
15044,560777
15047,561237
15049,560660
15051,561763
15054,561009
15056,561528
15058,560793
15062,560871
15064,561313
15066,561871
15069,561158
15071,561294
15073,562470
15076,562338
15078,561627
15080,561799
15082,563029
15085,562305
15087,562221
15089,562420
15092,563608
15094,562865
15096,563547
15099,562823
15101,564260
15104,563490
15107,564173
15109,563510
15111,563664
15114,564185
15116,564874
15118,564192
15121,564445
15123,565677
15125,565632
15128,564976
15130,565161
15132,566394
15135,565664
15137,565744
15139,565920
15142,567082
15144,566383
15147,567049
15150,566393
15152,567819
15154,567080
15157,567744
15159,567046
15161,567336
15164,567814
15166,568528
15168,567771
15170,568076
15173,569249
15175,569173
15177,568425
15180,568705
15182,569877
15184,569098
15187,569102
15190,569453
15192,570478
15195,569696
15197,570413
15199,569635
15202,570973
15204,570282
15206,570963
15209,570243
15211,570684
15213,570763
15216,571549
15218,570704
15220,571341
15223,571896
15225,572013
15227,571242
15230,571880
15233,572303
15235,571743
15238,571702
15240,572401
15242,572739
15245,572149
15247,572946
15249,572208
15252,573138
15254,572630
15256,573413
15258,572665
15261,573448
15263,573033
15265,573878
15268,573160
15270,574092
15272,574037
15276,574439
15278,573689
15280,574653
15283,574492
15285,574168
15287,574325
15290,575358
15292,575094
15294,574781
15297,575685
15299,574933
15301,575741
15304,575367
15306,576298
15308,575597
15311,576639
15313,575950
15315,576761
15319,576069
15321,577079
15323,576586
15326,577025
15328,576159
15330,577089
15333,576456
15335,575900
15337,575456
15340,576177
15342,575293
15344,574501
15346,574965
15349,573669
15351,573075
15353,572108
15356,572366
15358,570950
15361,571327
15364,569035
15366,569176
15368,567692
15371,568102
15373,566885
15375,565881
15378,564369
15380,564751
15382,563517
15385,562468
15387,562694
15389,561681
15392,560530
15394,559630
15396,559854
15399,558575
15401,558023
15404,557144
15407,557522
15409,556250
15411,556920
15414,555157
15416,555595
15418,554478
15421,555160
15423,554301
15425,554226
15428,553220
15430,554140
15432,553347
15434,552880
15437,553429
15439,553469
15441,552769
15444,552419
15447,552946
15449,552207
15452,552659
15454,552407
15456,553017
15459,552284
15461,553344
15463,552766
15466,553218
15468,552583
15470,553774
15473,553251
15475,553606
15477,553122
15480,554360
15482,553860
15484,554039
15488,554212
15490,555033
15492,554619
15495,554804
15497,554880
15499,554572
15502,555335
15504,555662
15506,555631
15509,555313
15511,556590
15513,556482
15515,556238
15518,556026
15520,557346
15522,556849
15525,557096
15527,556701
15529,558082
15533,557666
15535,558114
15537,557769
15540,558839
15542,558417
15544,558897
15547,558498
15549,558383
15551,559305
15554,559866
15556,559364
15558,559243
15561,560643
15563,560841
15565,560341
15568,560291
15570,561675
15572,561288
15576,561326
15578,561267
15580,562667
15583,562251
15585,562840
15587,562181
15590,563478
15592,563021
15594,563634
15597,562943
15599,562827
15601,563591
15603,564128
15606,563433
15608,563261
15610,564505
15613,564438
15616,563652
15618,563421
15621,564625
15623,564059
15625,564519
15628,563432
15630,564569
15632,563930
15635,564396
15637,563495
15639,564359
15642,563702
15644,564099
15646,563158
15649,562882
15651,563329
15653,563707
15656,562791
15659,562492
15661,563632
15664,563348
15666,562397
15668,562199
15671,563279
15673,562603
15675,562974
15678,561851
15680,562950
15682,562296
15685,562678
15687,561789
15689,562774
15691,562137
15694,562577
15696,561707
15698,561609
15702,561999
15704,562527
15706,561691
15709,561771
15711,562613
15713,562666
15716,561854
15718,562018
15720,562766
15723,562348
15725,562915
15727,562398
15730,563043
15732,562626
15734,563230
15737,562467
15739,563472
15741,563171
15745,563828
15747,563045
15749,563466
15752,563661
15754,564380
15756,563613
15759,564172
15761,564459
15763,564998
15766,564266
15768,564911
15770,565064
15773,564914
15775,565645
15777,565641
15780,565747
15782,565660
15784,566423
15787,565688
15790,566472
15792,566368
15794,567184
15797,566471
15799,567236
15801,567112
15804,567928
15806,567277
15808,568030
15811,567906
15813,568669
15815,567977
15818,568804
15820,568581
15822,568566
15825,569421
15827,569588
15830,569356
15833,569343
15835,570131
15837,569448
15840,569989
15842,569966
15844,570812
15847,570083
15849,571006
15851,570641
15854,571429
15856,570650
15858,571597
15861,571206
15863,572034
15865,571257
15867,572218
15870,571785
15873,571788
15875,572607
15878,572776
15880,572352
15882,572364
15885,573132
15887,572320
15889,572911
15892,572946
15894,573678
15896,572900
15899,573847
15901,573426
15903,574214
15906,573410
15908,574388
15910,573937
15913,574742
15916,573974
15918,575014
15921,574556
15923,574624
15925,575385
15928,575569
15930,575095
15932,575187
15935,575931
15937,575148
15939,575686
15942,575726
15944,576371
15946,575563
15949,576546
15951,576022
15953,576563
15955,575634
15959,576493
15961,575810
15963,575804
15966,574970
15968,575632
15970,574772
15973,574673
15975,574519
15977,573836
15980,572751
15982,572549
15984,572130
15987,570786
15989,570024
15991,569776
15994,569112
15996,567776
15998,568158
16002,566669
16004,565847
16006,564598
16009,565002
16011,563826
16013,563716
16016,561674
16018,562125
16020,560993
16023,561064
16025,560054
16027,559613
16030,558566
16032,558720
16034,557753
16037,556858
16039,556629
16041,556904
16044,555907
16047,555148
16049,555983
16051,555540
16054,554604
16056,553971
16058,554873
16061,554174
16063,554713
16065,553272
16068,554326
16070,553680
16072,554340
16075,553446
16077,554108
16079,553560
16082,554318
16084,553454
16087,553174
16090,553819
16092,554614
16094,553764
16097,553554
16099,554731
16101,555202
16104,554340
16106,554172
16108,555388
16111,554960
16113,555896
16115,554931
16118,556170
16120,555746
16122,556746
16124,555902
16128,557048
16130,556627
16132,557621
16135,556844
16137,556677
16139,557582
16142,558515
16144,557758
16146,557570
16149,558886
16151,559516
16153,558631
16156,558508
16158,559801
16160,559447
16163,560441
16165,559496
16167,560869
16171,560477
16173,561541
16175,560681
16178,561953
16180,561546
16182,562561
16185,561763
16187,561725
16189,562700
16192,563765
16194,562937
16196,562915
16199,564117
16201,563817
16203,563978
16206,563929
16208,565183
16210,564738
16212,565754
16216,564885
16218,565974
16220,565556
16223,566486
16225,565573
16227,566455
16230,566020
16232,566949
16234,565978
16237,566009
16239,566213
16241,567125
16244,566061
16246,566173
16248,566588
16251,566204
16253,566014
16256,566172
16259,566445
16261,566060
16263,566875
16266,565991
16268,566105
16270,565775
16273,566656
16275,565557
16277,565786
16280,565492
16282,566289
16284,565214
16287,565503
16289,565084
16291,565956
16294,564846
16296,565176
16299,564980
16301,564785
16304,564576
16306,565014
16308,564726
16311,564559
16313,565504
16315,564892
16318,564565
16320,564469
16322,565389
16325,564396
16327,564627
16329,564537
16332,565570
16334,564572
16336,565151
16339,564753
16342,565788
16344,564829
16347,565507
16349,565112
16351,565080
16354,565165
16356,565892
16358,565460
16361,565513
16363,566613
16365,566399
16368,565990
16370,566103
16372,567201
16375,566253
16377,566643
16379,566708
16382,567800
16385,566975
16387,567739
16389,567411
16392,568463
16394,567606
16396,568437
16399,568054
16401,568185
16403,568414
16406,569193
16408,568819
16410,568921
16413,570063
16415,570029
16417,569629
16420,569765
16422,570884
16424,569992
16428,570388
16430,570541
16432,571615
16435,570750
16437,571567
16439,571339
16442,572376
16444,571509
16446,572345
16449,571929
16451,572162
16453,572304
16456,573052
16458,572676
16460,572865
16463,573848
16465,573881
16467,573451
16471,573712
16473,574572
16475,573694
16477,574111
16480,574437
16482,575091
16484,574384
16487,575177
16489,574693
16491,575712
16494,574940
16496,575785
16498,575339
16501,575815
16503,575495
16505,576333
16508,575887
16510,576445
16513,576686
16516,576897
16518,576441
16520,577110
16523,577150
16525,576590
16527,576989
16530,577671
16532,577653
16534,577077
16537,577947
16539,577506
16541,578053
16544,577569
16546,578476
16548,578030
16551,578774
16553,578035
16556,579006
16559,578563
16561,579385
16563,579030
16565,579588
16568,579119
16570,580054
16572,579585
16575,579177
16577,579730
16579,580695
16582,580180
16584,579744
16586,580700
16589,580300
16591,580724
16593,580346
16596,581285
16599,580855
16601,581832
16604,580747
16606,581694
16608,581120
16611,581973
16613,581136
16615,581272
16618,580478
16620,581159
16622,580073
16625,579300
16627,578636
16629,579030
16632,577683
16634,576658
16636,576866
16640,575671
16642,574301
16644,573158
16647,573178
16649,571964
16651,572117
16653,569315
16656,569433
16658,568169
16660,568388
16663,566812
16665,565852
16667,564673
16670,564928
16672,563512
16674,562425
16677,561572
16679,561955
16681,560561
16685,559657
16687,559987
16689,558904
16692,558148
16694,557331
16696,557774
16699,556858
16701,557421
16703,555583
16706,556075
16708,555304
16710,556025
16713,554979
16715,555010
16717,554377
16720,555119
16722,554117
16724,553802
16728,553818
16730,554660
16740,554657
16741,554657
16743,553843
16745,553904
16747,554290
16749,553948
16751,555016
16753,554252
16754,554331
16756,554643
16758,554399
16760,555507
16762,554770
16764,554957
16766,555155
16769,555048
16771,556167
16773,555450
16775,555814
16777,555858
16780,556972
16782,556322
16784,556643
16787,556604
16789,556575
16791,557066
16794,557491
16796,557389
16798,557397
16801,558618
16803,558365
16805,558077
16808,558219
16811,559423
16813,558729
16816,558879
16818,558934
16820,560139
16822,559415
16825,560094
16827,559627
16829,560943
16832,560247
16834,560878
16836,560424
16839,560679
16841,561220
16843,561939
16846,561368
16848,561624
16850,562939
16854,563003
16856,562422
16858,562668
16861,563975
16863,563243
16865,563499
16868,563705
16870,564950
16872,564285
16875,564917
16877,564322
16879,565816
16882,565030
16884,565765
16886,565046
16889,565248
16891,565668
16893,566326
16897,565566
16899,565683
16901,566844
16904,566563
16906,565785
16908,565860
16910,567021
16913,566099
16915,565830
16917,565891
16920,566956
16922,566058
16924,566592
16927,565725
16929,566833
16931,565854
16934,566378
16936,565465
16939,565468
16942,565522
16944,566080
16946,565223
16949,565199
16951,566220
16953,565821
16956,564922
16958,564979
16960,565971
16963,565016
16965,564694
16967,564796
16970,565782
16972,564829
16974,565415
16977,564551
16979,565694
16982,564789
16985,565412
16987,564550
16989,564883
16992,564814
16994,565489
16996,564689
16998,565038
17001,565743
17003,565649
17005,564901
17008,565491
17010,566001
17012,565281
17015,565259
17017,565916
17019,566317
17022,565751
17025,566515
17027,565787
17030,566725
17032,566188
17034,567023
17037,566332
17039,567145
17041,566863
17044,567708
17046,566942
17048,567823
17051,567936
17053,568359
17055,567640
17058,568602
17060,568562
17062,568207
17065,569147
17068,569460
17070,569286
17073,568933
17075,569859
17077,569187
17080,570144
17082,569834
17084,570724
17086,570044
17089,571151
17091,570630
17093,571599
17096,570921
17098,572011
17100,571727
17103,572476
17105,571748
17107,572935
17111,572592
17113,572263
17115,573256
17118,573826
17120,573447
17122,573172
17125,574140
17127,573465
17129,574259
17132,573903
17134,574853
17136,574221
17139,575353
17141,574659
17143,575683
17146,574972
17148,576158
17150,575647
17154,576371
17156,575672
17158,576898
17161,576415
17163,576127
17165,577049
17168,577562
17170,577070
17172,576774
17174,577693
17177,577027
17179,577695
17181,577419
17184,578297
17186,577645
17188,578781
17191,577906
17193,578869
17196,578138
17199,579294
17201,578779
17203,579413
17206,578671
17208,579931
17210,579430
17213,579096
17215,579961
17217,580442
17220,579863
17222,579647
17224,580470
17227,579788
17229,580475
17231,580263
17234,581055
17236,580381
17239,581618
17242,580952
17244,581705
17246,581098
17249,582300
17251,581753
17253,582268
17256,581708
17258,582918
17260,582416
17262,582430
17265,582721
17267,583338
17269,582753
17272,582783
17274,582860
17276,582292
17280,582592
17282,582502
17284,582248
17287,581458
17289,582285
17291,580954
17294,580279
17296,579321
17298,579892
17301,578643
17303,577116
17305,576038
17308,576449
17310,575097
17312,574583
17315,573381
17317,572695
17319,571274
17323,570748
17325,569543
17327,568536
17330,567676
17332,567284
17334,566069
17337,565048
17339,565660
17341,564211
17343,562969
17346,562196
17348,562796
17350,561649
17353,561551
17355,559794
17357,560486
17360,559510
17362,559574
17364,558497
17368,558759
17370,557861
17372,558078
17375,556980
17377,556559
17379,556743
17382,556980
17384,556045
17386,555784
17389,556847
17391,556494
17393,555606
17396,555376
17398,556547
17400,555926
17403,556418
17405,555443
17408,556689
17411,556145
17413,556653
17415,555940
17418,557083
17420,556595
17422,557176
17425,556462
17427,556421
17429,557242
17431,557870
17434,557139
17436,557175
17438,558484
17441,558705
17443,558016
17445,558046
17448,559346
17451,558914
17453,559629
17456,558925
17458,560268
17460,559769
17463,560422
17465,559743
17467,561102
17470,560684
17472,561361
17474,560680
17477,560756
17479,561551
17481,562218
17484,561590
17486,561804
17488,562914
17491,563229
17494,562558
17496,562804
17499,563901
17501,563533
17503,564244
17506,563923
17508,564868
17510,564596
17513,565341
17515,564690
17517,565952
17519,565705
17522,566454
17524,565805
17526,566428
17529,566794
17531,567593
17533,566879
17537,567461
17539,567909
17541,568490
17544,567754
17546,568345
17548,568649
17551,568450
17553,569110
17555,568932
17558,569030
17560,568830
17562,569485
17565,568546
17567,569168
17569,568895
17572,569469
17574,568644
17576,569179
17580,568690
17582,569280
17584,568357
17587,568872
17589,568547
17591,568829
17594,567887
17596,568528
17598,568084
17601,567795
17603,568324
17605,568076
17607,567597
17610,567370
17612,567905
17614,566976
17617,567084
17619,566856
17622,567411
17625,566451
17627,567166
17629,566398
17632,566973
17634,566079
17636,566786
17639,566257
17641,566105
17643,565785
17646,566603
17648,566016
17650,565864
17653,566591
17655,566586
17657,566049
17660,565986
17662,566640
17665,565820
17668,566205
17670,566175
17672,566944
17675,566073
17677,567035
17679,566484
17682,567206
17684,566454
17686,567437
17689,567003
17691,566962
17693,566958
17695,567974
17698,567500
17700,567523
17702,568308
17705,568567
17708,568169
17710,568202
17713,568961
17715,568244
17717,568813
17720,568899
17722,569742
17724,568991
17727,570037
17729,569714
17731,570438
17734,569711
17736,570795
17738,570346
17741,570567
17743,570461
17745,571629
17748,571205
17751,571404
17753,572003
17756,572456
17758,572051
17760,572349
17763,572782
17765,572151
17767,572867
17770,573297
17772,573546
17774,572983
17777,574199
17779,574175
17781,574296
17783,573782
17786,574958
17788,574481
17790,575020
17794,574531
17796,575735
17798,575223
17801,575784
17803,575600
17805,576313
17808,575828
17810,576476
17812,576133
17815,575749
17817,576456
17819,577115
17822,576619
17824,576241
17826,577484
17829,577721
17831,577179
17833,576839
17837,578040
17839,577559
17841,578311
17844,577366
17846,578607
17848,578122
17851,578965
17853,578222
17855,579179
17858,578709
17860,579570
17862,578823
17865,578564
17867,579358
17869,580204
17871,579415
17874,579118
17876,580395
17879,579886
17882,579863
17884,579622
17886,580869
17889,580374
17891,581165
17893,579886
17896,581108
17898,580425
17900,581184
17903,580066
17905,580593
17907,579747
17910,580268
17912,578920
17914,578238
17917,577930
17920,578236
17922,576657
17925,575793
17927,576354
17929,575081
17932,573482
17934,572488
17936,572971
17939,571681
17941,571851
17943,569141
17946,569541
17948,568249
17950,568435
17952,566700
17955,566346
17957,565119
17959,565391
17963,563817
17965,562898
17967,562384
17970,562711
17972,561187
17974,560374
17977,561109
17979,560079
17981,559129
17984,558515
17986,559285
17988,558370
17991,558824
17993,557110
17995,557903
17998,557082
18000,557697
18002,556538
18006,557015
18008,556319
18010,557036
18013,555890
18015,555785
18017,555947
18020,556784
18022,555754
18024,555834
18027,556361
18029,555969
18031,555938
18034,556060
18036,556654
18038,556291
18040,557238
18043,556687
18045,557096
18048,556907
18051,557934
18053,557087
18055,557826
18058,557731
18060,558776
18062,557990
18065,558418
18067,558607
18069,559691
18072,558853
18074,559399
18076,559515
18079,559537
18081,559856
18083,560496
18086,560563
18088,560568
18091,561743
18094,561612
18096,561589
18098,561678
18101,562889
18103,562109
18105,562733
18108,562860
18110,564081
18112,563312
18115,564113
18117,564094
18119,565319
18122,564581
18124,565372
18126,565248
18128,565437
18131,565961
18134,566877
18136,566679
18139,566882
18141,568039
18143,568161
18146,567935
18148,568067
18150,569328
18153,568489
18155,569081
18157,569209
18160,570388
18162,569533
18164,570316
18167,569936
18169,571101
18171,570180
18174,570934
18177,570427
18179,570476
18182,570489
18184,571162
18186,570575
18189,570579
18191,571487
18193,571079
18196,570486
18198,570371
18200,571216
18203,570201
18205,570106
18207,570058
18210,570883
18212,569838
18214,570337
18216,569684
18220,570461
18222,569319
18224,569909
18227,569212
18229,569143
18231,568864
18234,569446
18236,568772
18238,568748
18241,569521
18243,569062
18245,568466
18248,568503
18250,569208
18252,568241
18255,568258
18257,568323
18259,568979
18263,568027
18265,568719
18267,568141
18270,568899
18272,568019
18274,568753
18277,568233
18279,568553
18281,568200
18284,568950
18286,568488
18288,568917
18291,569191
18293,569325
18295,568885
18298,569419
18300,569573
18302,568963
18305,569409
18308,570033
18310,570129
18312,569546
18315,570406
18317,570073
18319,570724
18322,570189
18324,571147
18326,570755
18329,571510
18331,570952
18333,571952
18336,571548
18338,572438
18340,572145
18343,572760
18345,572404
18348,573340
18351,572998
18353,572610
18355,573263
18358,574274
18360,573878
18362,573555
18365,574554
18367,574264
18369,574716
18372,574490
18374,575529
18376,575166
18379,576173
18381,575325
18383,576422
18386,576103
18388,577139
18391,576502
18393,577207
18396,576956
18398,578010
18400,577369
18403,577109
18405,577789
18407,578846
18410,578217
18412,577980
18414,578984
18417,578654
18419,579042
18421,578747
18424,579794
18426,579440
18428,580436
18432,579533
18434,580527
18436,580077
18439,581222
18441,580532
18443,581199
18446,580838
18448,581952
18450,581206
18453,580931
18455,581938
18457,582536
18460,581877
18462,581612
18464,582639
18467,582220
18469,582599
18471,582299
18475,583284
18477,582902
18479,584012
18481,583013
18484,584001
18486,583590
18488,584664
18491,583882
18493,584668
18495,584282
18498,585380
18500,584607
18502,584442
18505,585384
18507,586076
18509,585324
18512,585202
18514,586034
18516,585650
18520,585933
18522,585842
18524,586370
18527,585977
18529,586990
18531,585875
18534,586059
18536,585483
18538,586254
18541,585060
18543,584476
18545,583668
18548,584092
18550,582576
18552,582006
18555,581277
18557,580446
18560,578674
18562,577967
18565,577043
18567,575921
18569,574347
18572,573669
18574,572617
18576,571666
18579,571902
18581,569738
18583,568669
18586,567799
18588,568147
18590,566540
18593,565146
18595,564497
18597,564929
18600,563461
18603,563320
18605,562243
18608,562320
18610,560952
18612,560963
18615,559940
18617,559673
18619,558996
18622,559127
18624,558222
18626,557929
18629,558794
18631,557871
18633,557010
18636,556860
18638,557799
18640,556753
18643,556286
18646,556278
18648,557288
18650,556325
18653,556804
18655,556036
18657,557163
18660,556283
18662,556885
18664,556174
18667,556275
18669,556656
18671,557301
18674,556572
18676,556813
18678,557971
18681,557875
18683,557164
18685,557393
18689,558692
18691,557885
18693,558007
18696,558257
18698,559490
18700,558766
18703,559538
18705,558914
18707,560417
18710,559709
18712,560497
18714,559840
18717,560124
18719,560651
18721,561422
18724,560790
18726,561080
18728,562360
18732,562425
18734,561729
18736,562022
18738,563262
18741,562530
18743,563327
18745,563057
18748,564296
18750,563533
18752,564384
18755,563803
18757,565434
18759,564723
18762,565576
18764,564987
18766,565441
18769,565872
18771,566775
18774,566180
18777,566723
18779,567722
18781,567889
18784,567277
18786,567948
18788,568724
18791,568025
18793,568912
18795,568885
18798,569510
18800,568823
18802,569662
18805,568943
18807,570021
18809,569367
18812,570153
18814,569409
18817,570068
18820,569625
18822,570391
18824,569560
18826,570217
18829,570291
18831,570354
18833,569515
18836,570183
18838,570045
18840,569382
18843,570102
18845,569874
18847,569649
18850,568962
18852,569699
18854,568859
18857,569211
18860,568591
18862,569257
18865,568388
18867,569160
18869,568118
18872,568857
18874,567972
18876,568808
18879,568346
18881,568492
18883,567658
18886,568557
18888,568047
18890,567510
18893,568297
18895,568399
18897,567919
18900,567376
18903,568208
18905,567454
18908,567848
18910,567423
18912,568263
18914,567518
18917,568533
18919,567640
18921,568480
18924,567801
18926,568872
18928,568346
18931,568861
18933,568125
18935,569196
18938,568729
18940,568423
18942,569317
18946,569747
18948,569291
18950,568943
18953,569851
18955,569256
18957,569896
18960,569632
18962,570574
18964,569940
18967,571070
18969,570312
18971,571294
18974,570657
18976,571868
18978,571411
18981,572137
18983,571493
18985,572722
18989,572226
18991,571942
18993,572986
18996,573551
18998,573063
19000,572830
19002,573853
19005,573225
19007,574006
19009,573757
19012,574657
19014,574104
19016,575348
19019,574738
19021,575547
19023,575002
19026,576248
19028,575829
19031,575692
19034,575883
19036,577168
19038,576696
19041,576667
19043,577210
19045,577979
19048,577526
19050,577572
19052,577923
19055,577503
19057,578295
19059,578492
19062,578604
19064,578276
19066,579516
19069,579172
19072,579314
19074,579024
19077,580249
19079,579754
19081,579997
19084,579662
19086,581002
19088,580480
19090,580745
19093,580603
19095,581638
19097,581122
19100,581511
19102,581199
19104,581037
19107,581882
19109,582204
19111,581811
19115,581653
19117,582943
19119,582946
19122,582462
19124,582395
19126,583702
19129,583222
19131,583692
19133,583111
19136,584493
19138,584005
19140,584546
19143,583961
19145,585203
19147,584737
19150,585297
19152,584674
19154,584608
19158,585422
19160,585894
19162,585170
19165,585091
19167,586257
19169,586052
19171,585082
19174,584807
19176,585778
19178,584903
19181,585065
19183,583170
19185,583818
19188,582660
19190,582418
19192,580906
19195,580354
19197,578921
19200,578526
19203,576764
19205,575782
19207,574603
19210,574249
19212,572528
19214,571553
19217,571911
19219,570194
19221,568598
19224,567764
19226,568209
19228,566897
19231,566760
19233,564505
19235,565101
19238,563906
19240,563839
19243,562460
19246,562482
19248,561441
19250,561512
19253,560186
19255,559729
19257,559479
19259,559653
19262,558484
19264,558157
19266,558994
19269,558370
19271,557228
19273,557094
19276,557935
19278,557215
19280,557592
19283,556604
19286,557377
19288,556729
19291,557227
19293,556348
19295,557217
19298,556737
19300,557246
19302,556495
19305,556772
19307,556975
19309,557589
19312,556856
19314,557327
19316,557785
19319,557474
19321,557485
19323,558027
19326,558430
19329,558221
19331,558905
19334,558863
19336,559159
19338,558945
19341,559781
19343,559084
19345,560014
19348,559954
19350,560739
19352,560105
19354,560905
19357,560978
19359,561831
19361,561138
19364,562007
19366,562036
19368,562029
19372,562159
19374,563097
19376,563072
19379,563066
19381,563915
19383,564283
19386,564161
19388,564214
19390,565079
19393,564508
19395,565392
19397,565474
19400,566378
19402,565787
19404,566903
19407,566804
19409,567759
19411,567112
19415,568256
19417,567965
19419,568173
19422,568360
19424,569449
19426,569123
19429,569220
19431,570028
19433,570450
19435,570114
19438,570146
19440,570906
19442,570168
19445,570678
19447,570662
19449,571432
19452,570490
19454,571451
19457,570814
19460,571425
19462,570527
19464,571355
19467,570785
19469,570635
19471,570259
19474,571049
19476,570354
19478,570088
19481,570641
19483,570438
19485,569667
19488,569467
19490,570006
19492,569047
19495,569080
19497,568841
19500,569328
19503,568286
19505,569114
19507,568076
19510,568604
19512,567671
19514,568459
19517,567733
19519,567577
19521,567110
19523,567960
19526,567289
19528,567200
19530,567596
19533,567631
19535,566987
19537,566947
19540,567331
19543,566498
19545,566861
19548,566995
19550,567208
19552,566460
19555,567473
19557,567135
19559,567246
19562,566591
19564,567677
19566,567095
19569,567464
19571,566922
19573,567991
19576,567561
19578,567945
19580,567875
19584,568532
19586,568003
19588,568547
19591,568354
19593,567929
19595,568655
19598,569248
19600,568923
19602,568540
19605,569764
19607,569292
19609,569621
19611,569284
19614,570563
19616,570087
19618,570792
19621,570060
19623,571382
19625,570941
19629,571731
19631,571171
19633,572253
19636,571832
19638,572637
19640,572060
19643,571819
19645,572710
19647,573610
19650,572895
19652,572652
19654,573955
19657,573561
19659,573724
19661,573588
19664,574921
19666,574499
19668,575381
19672,574422
19674,575762
19676,575432
19679,576261
19681,575440
19683,576573
19686,576150
19688,577025
19690,576219
19693,576076
19695,576930
19697,577867
19699,577059
19702,576841
19704,578181
19706,577692
19709,577813
19712,577618
19714,578927
19717,578454
19719,579405
19721,578369
19724,579701
19726,579237
19728,580180
19731,579335
19733,580459
19735,580026
19738,580961
19740,580165
19742,579975
19745,580795
19747,581790
19749,580956
19752,580790
19755,582112
19757,581654
19760,581672
19762,581483
19764,582660
19767,582183
19769,583017
19771,581771
19774,582832
19776,582145
19778,582832
19780,581661
19783,581937
19785,580972
19787,581358
19790,579883
19792,579262
19794,578368
19798,578493
19800,576702
19802,575953
19805,575949
19807,574618
19809,572809
19812,572033
19814,571836
19816,570613
19819,570653
19821,568201
19823,567927
19826,566812
19828,566943
19830,565277
19833,564520
19835,563562
19837,563830
19841,562262
19843,561945
19845,560779
19848,561170
19850,559764
19852,559596
19855,559218
19857,558618
19859,557800
19862,557745
19864,557474
19866,556929
19868,557543
19871,556519
19873,556173
19875,555829
19878,556536
19880,555402
19883,555442
19886,555269
19888,555987
19890,554955
19893,555381
19895,555081
19897,555870
19900,554898
19902,555437
19904,555121
19907,555069
19909,555172
19911,555799
19914,555440
19916,555526
19918,556538
19921,556399
19923,556064
19926,556141
19929,557216
19931,556379
19933,556837
19936,556941
19938,558027
19940,557273
19943,558060
19945,557762
19947,559037
19950,558286
19952,559052
19954,558771
19956,558963
19959,559346
19961,560211
19963,559894
19966,560104
19969,561271
19971,561366
19974,561088
19976,561348
19978,562465
19981,561757
19983,562403
19985,562633
19988,563749
19990,563064
19992,564028
19995,563793
19997,565231
19999,564535
20002,565508
20004,565248
20006,565536
20009,565976
20012,566953
20014,566683
20017,566960
20019,568034
20021,568242
20024,567919
20026,568182
20028,569215
20031,568559
20033,568952
20035,569245
20038,570124
20040,569279
20042,570048
20044,569675
20047,570678
20049,569735
20051,570456
20055,569955
20057,570189
20059,569813
20062,570469
20064,569848
20066,570114
20069,570353
20071,570161
20073,569559
20076,569812
20078,569907
20080,569024
20083,569003
20085,569336
20087,569305
20090,568426
20092,568992
20094,568349
20098,568534
20100,567797
20102,568395
20105,567783
20107,568247
20109,567174
20112,567899
20114,567266
20116,567779
20119,567404
20121,567439
20123,566869
20126,567483
20128,566988
20130,566370
20132,566580
20135,567309
20137,566732
20140,566213
20143,567041
20145,566566
20147,566720
20150,566261
20152,567046
20154,566642
20157,567498
20159,566383
20161,567287
20164,566859
20166,567800
20168,567130
20171,567666
20173,567277
20175,568221
20178,567549
20180,567260
20183,568182
20186,568776
20188,568108
20190,567820
20193,568808
20195,568397
20197,568730
20200,568528
20202,569510
20204,569134
20207,570160
20209,569279
20211,570264
20214,569979
20216,571039
20218,570311
20220,571074
20224,570718
20226,571846
20228,571094
20231,570937
20233,571896
20235,572775
20238,572026
20240,571879
20242,572915
20245,572551
20247,572924
20249,572755
20252,573781
20254,573487
20256,574559
20259,573649
20261,574669
20263,574358
20267,575436
20269,574672
20271,575437
20274,575122
20276,576245
20278,575458
20281,575335
20283,576312
20285,577081
20288,576378
20290,576243
20292,577145
20295,576780
20297,577100
20299,577050
20302,577875
20304,577595
20306,578723
20308,577897
20312,578612
20314,578376
20316,579463
20319,578603
20321,579274
20323,579114
20326,580217
20328,579425
20330,579667
20333,579976
20335,581019
20337,580232
20340,580502
20342,580680
20344,580577
20347,580978
20349,581294
20352,581460
20355,581440
20357,582614
20359,582228
20362,582228
20364,582161
20366,583327
20369,582520
20371,582793
20373,582745
20376,583914
20378,582941
20380,583286
20383,582803
20385,583480
20387,582251
20389,582383
20392,581551
20395,581022
20397,579982
20400,579873
20402,578509
20404,577661
20407,577946
20409,575658
20411,574051
20414,573170
20416,573346
20418,571424
20421,571036
20423,568583
20425,568814
20428,567013
20430,566716
20432,565142
20435,564852
20438,563106
20440,562995
20443,561528
20445,561020
20447,559883
20450,559845
20452,558575
20454,558080
20457,558632
20459,557335
20461,556122
20464,555777
20466,556491
20468,555139
20471,555411
20473,553988
20475,554805
20477,553569
20481,553930
20483,552887
20485,553590
20488,552515
20490,552972
20492,551996
20495,551967
20497,551949
20499,552478
20502,551660
20504,551712
20506,552753
20509,552366
20511,551582
20513,551781
20516,552918
20518,551967
20520,552692
20524,552140
20526,553326
20528,552479
20531,553251
20533,552511
20535,553994
20538,553064
20540,553867
20542,553215
20545,553577
20547,553875
20549,554703
20552,554080
20554,554467
20556,555487
20559,555538
20561,554910
20563,555471
20566,556394
20569,555688
20571,556516
20573,556437
20576,557250
20578,556633
20580,557435
20583,556831
20585,558222
20587,557539
20590,558479
20592,557902
20594,558667
20597,558593
20599,559534
20601,559016
20604,559829
20606,560178
20609,560707
20612,560188
20614,561080
20616,561362
20619,560917
20621,561909
20623,562372
20626,562520
20628,562103
20630,563103
20633,562540
20635,563612
20637,563108
20640,564171
20642,563537
20644,564553
20647,563989
20649,564928
20652,564303
20654,565290
20657,565102
20659,565508
20661,564820
20664,565771
20666,565396
20668,564901
20671,565819
20673,565942
20675,565425
20678,564848
20680,565638
20682,564874
20685,565172
20687,564629
20689,565403
20692,564589
20695,565496
20697,564281
20700,564987
20702,564146
20704,564973
20707,564296
20709,563787
20711,563733
20714,564634
20716,563895
20718,563357
20721,564060
20723,564144
20725,563461
20728,562904
20730,563670
20732,562937
20736,563160
20738,562663
20740,563450
20742,562693
20745,563639
20747,562511
20749,563295
20752,562565
20754,563596
20756,562987
20759,562551
20761,562685
20763,563704
20766,563080
20768,562680
20770,563520
20773,563926
20775,563353
20777,562965
20781,563855
20783,563229
20785,563755
20788,563407
20790,564281
20792,563645
20795,564773
20797,564004
20799,564892
20802,564270
20804,565343
20806,564931
20809,564694
20811,564958
20813,566085
20816,565599
20818,565581
20820,566203
20824,566887
20826,566442
20828,566353
20830,566863
20833,566475
20835,567219
20837,567227
20840,567628
20842,567308
20844,568509
20847,568213
20849,568390
20851,568144
20854,569407
20856,568908
20858,569125
20861,568921
20864,570206
20866,569787
20869,570031
20871,570026
20873,571146
20876,570652
20878,571002
20880,570895
20883,570704
20885,571493
20887,571913
20890,571656
20892,571548
20894,572759
20897,572756
20899,572450
20901,572314
20904,573611
20907,573139
20909,573533
20912,573102
20914,574406
20916,573908
20918,574437
20921,573866
20923,575187
20925,574701
20928,575228
20930,574680
20932,574685
20935,575545
20937,576129
20939,575461
20942,575525
20944,576856
20946,576942
20950,576268
20952,576309
20954,577676
20957,577229
20959,577781
20961,577199
20964,578465
20966,578003
20968,578607
20971,577893
20973,579264
20975,578754
20978,579298
20980,578589
20982,578561
20985,579144
20987,579619
20989,578743
20993,578470
20995,579439
20997,578557
20999,577512
21002,577000
21004,577617
21006,576427
21009,576316
21011,573833
21013,574252
21016,572784
21018,572422
21020,570617
21023,569995
21025,568415
21027,568066
21030,566289
21032,565375
21035,564205
21038,563883
21040,562228
21042,561482
21045,561904
21047,560496
21049,558748
21052,558179
21054,558573
21056,557391
21059,557270
21061,555435
21063,555807
21066,554723
21068,554807
21070,553447
21073,553695
21075,552727
21078,552848
21081,551661
21083,551543
21085,551145
21087,551440
21090,550310
21092,550437
21094,550736
21097,550117
21099,549519
21101,549807
21104,550100
21106,549559
21108,550046
21111,549542
21113,549747
21115,549366
21118,549965
21121,549162
21123,549862
21126,549639
21128,550223
21130,549505
21133,550155
21135,550066
21137,550747
21140,550030
21142,550822
21144,550809
21147,550704
21149,550745
21151,551592
21154,551589
21156,551501
21158,552239
21161,552462
21164,552377
21166,552350
21169,553119
21171,552438
21173,553223
21175,553232
21178,554081
21180,553390
21182,554407
21185,554209
21187,555022
21189,554380
21192,555436
21194,555136
21196,555146
21199,555426
21201,556472
21203,556175
21207,556266
21209,557172
21211,557645
21214,557360
21216,557460
21218,558265
21221,557744
21223,558551
21225,558719
21228,559594
21230,558990
21232,560137
21235,559855
21237,560805
21239,560123
21242,561298
21244,560947
21246,560983
21250,561111
21252,562212
21254,561823
21257,561776
21259,562621
21261,562853
21263,562353
21266,562273
21268,563017
21270,562177
21273,562626
21275,562468
21277,563058
21280,562178
21282,563094
21284,562440
21287,562796
21289,561917
21292,562790
21295,562109
21297,561908
21299,561478
21302,562333
21304,561614
21306,561441
21309,561920
21311,561739
21313,561018
21316,560872
21318,561276
21320,560315
21323,560427
21325,560352
21327,560665
21330,559731
21332,560571
21335,559920
21338,560110
21340,559304
21342,560254
21345,559522
21347,559675
21349,558959
21351,559968
21354,559333
21356,559584
21358,559530
21361,559839
21363,559275
21365,559599
21368,559481
21370,558897
21372,559469
21376,559859
21378,559620
21380,559129
21383,560259
21385,559689
21387,559791
21390,559438
21392,560605
21394,560095
21397,560698
21399,559916
21401,561064
21404,560593
21406,561231
21408,560780
21411,561668
21413,561224
21415,561925
21419,561360
21421,561067
21423,561877
21426,562659
21428,562059
21430,561799
21433,563084
21435,562627
21437,562769
21439,562570
21442,563854
21444,563427
21446,564246
21449,563409
21451,564691
21453,564294
21456,565117
21458,564369
21460,565528
21464,565119
21466,565954
21468,565170
21471,565055
21473,565940
21475,566794
21478,566095
21480,565923
21482,567221
21485,566793
21487,566907
21498,567742
21499,567577
21500,567577
21502,568877
21505,568501
21507,569339
21509,568484
21511,568393
21513,569704
21515,569307
21517,570204
21519,569344
21520,569151
21522,570512
21524,570144
21526,570934
21528,570226
21530,570021
21532,571331
21534,570892
21537,570955
21539,570839
21541,572122
21544,571724
21547,572644
21549,571739
21552,572990
21554,572594
21556,573500
21559,572652
21561,573893
21563,573376
21566,574304
21568,573407
21570,573353
21573,574489
21575,574912
21577,573976
21580,573853
21582,574748
21584,574216
21587,573748
21590,573472
21592,574003
21595,573238
21597,573624
21599,571760
21602,571818
21604,570774
21606,570907
21608,569178
21611,568277
21613,567077
21615,567008
21618,565244
21620,564629
21622,564103
21625,563036
21627,561214
21629,560731
21633,560202
21635,559210
21637,557593
21640,557286
21642,556691
21644,555788
21647,556025
21649,554224
21651,553655
21654,552940
21656,553239
21658,551846
21661,551281
21663,550731
21665,551086
21668,549795
21670,549879
21672,549356
21676,549472
21678,548241
21680,548514
21683,547994
21685,547714
21687,547316
21690,547697
21692,547268
21694,547042
21696,547783
21699,547286
21701,546857
21703,546757
21706,547614
21708,546660
21710,546856
21713,546797
21715,547742
21718,546828
21721,547546
21723,547201
21725,548180
21728,547376
21730,548093
21732,547733
21735,547846
21737,548123
21739,548841
21742,548517
21744,548650
21746,549622
21749,549693
21751,549392
21753,549554
21756,550519
21758,549856
21761,550381
21764,550530
21766,551541
21768,550765
21771,551622
21773,551308
21775,552575
21778,551843
21780,552698
21782,552434
21784,552666
21787,552981
21789,553827
21791,553548
21794,553800
21796,554879
21798,555067
21801,554789
21804,555065
21806,556157
21809,555418
21811,556139
21813,556451
21816,557485
21818,556789
21820,557710
21823,557450
21825,558705
21827,558018
21830,558900
21832,558654
21834,558942
21837,559013
21839,559883
21841,559535
21844,559863
21847,560462
21849,560588
21852,560028
21854,560476
21856,560813
21859,560060
21861,560842
21863,560739
21866,560820
21868,560130
21870,560875
21872,560296
21875,560583
21877,559869
21879,560508
21882,559982
21884,560358
21886,559377
21890,560050
21892,559454
21894,559860
21897,559522
21899,559449
21901,558903
21904,559413
21906,558884
21908,558256
21911,558936
21913,558896
21915,558353
21918,557751
21920,558421
21922,557904
21925,557787
21927,557259
21929,558015
21933,557438
21935,558163
21937,557000
21940,557705
21942,557265
21944,557975
21947,557203
21949,557588
21951,557177
21954,557952
21956,557221
21958,556855
21960,557714
21963,558109
21965,557364
21967,556951
21970,557881
21972,557501
21975,557624
21978,557318
21980,558180
21982,557848
21985,558808
21987,557765
21989,558726
21992,558426
21994,559345
21996,558575
21999,559300
22001,558982
22003,559966
22006,559218
22008,558976
22010,559980
22013,560643
22016,559840
22018,559686
22021,560693
22023,560350
22025,560653
22028,560469
22030,561450
22032,561128
22035,562209
22037,561243
22039,562304
22042,561971
22044,562981
22046,562285
22048,563107
22051,562858
22053,563932
22055,563120
22059,563030
22061,563972
22063,564812
22066,564039
22068,563930
22070,564915
22073,564548
22075,564882
22077,564809
22080,565773
22082,565423
22084,566548
22087,565734
22089,566528
22091,566242
22094,567326
22096,566524
22098,567273
22102,567022
22104,568115
22106,567307
22109,567438
22111,567973
22113,568919
22116,568128
22118,568327
22120,568665
22123,568573
22125,568860
22127,569191
22130,569473
22132,569367
22134,570584
22136,570080
22139,570237
22141,570220
22144,571375
22147,570619
22149,571009
22151,570997
22154,572195
22156,571365
22158,571803
22161,571646
22163,572798
22165,571866
22168,572307
22170,571980
22172,571873
22175,571819
22177,572117
22179,571447
22182,571189
22184,571954
22187,570614
22190,569548
22192,568956
22194,569460
22197,567837
22199,567628
22201,565446
22204,565766
22206,563962
22208,563685
22211,562154
22213,561544
22215,559781
22217,559564
22220,558022
22222,557315
22224,556013
22227,555866
22230,554431
22232,553839
22235,554316
22237,552661
22239,551367
22242,550886
22244,551452
22246,549953
22249,550065
22251,548429
22253,549048
22256,547633
22258,547894
22260,546752
22263,547256
22265,545926
22267,546269
22270,545302
22273,545127
22275,544818
22278,545286
22280,544371
22282,544305
22285,545200
22287,544706
22289,543879
22292,543926
22294,544932
22296,543942
22299,544540
22301,543869
22303,544956
22305,544026
22308,544691
22310,544035
22312,545336
22316,544426
22318,545182
22320,544527
22323,544761
22325,545005
22327,545748
22330,545132
22332,545458
22334,546548
22337,546617
22339,545984
22341,546339
22344,547339
22346,546622
22348,547448
22351,547359
22353,548286
22355,547501
22359,548296
22361,547775
22363,549022
22366,548339
22368,549244
22370,548707
22373,549323
22375,549387
22377,550211
22380,549676
22382,550409
22384,550901
22387,551262
22389,550751
22391,551499
22393,551928
22396,551406
22398,552388
22401,552785
22404,553066
22406,552607
22408,553581
22411,553107
22413,554196
22415,553770
22418,554741
22420,554201
22422,555126
22425,554776
22427,555691
22429,555120
22432,556039
22434,555917
22436,555509
22439,555824
22441,556747
22444,556495
22447,556035
22449,556906
22451,557110
22454,556738
22456,556250
22458,557059
22461,556365
22463,556768
22465,556227
22468,556965
22470,556299
22472,557119
22475,555982
22477,556717
22479,555959
22481,556849
22484,556112
22487,555616
22489,555617
22492,556514
22494,555834
22496,555334
22499,556061
22501,556138
22503,555539
22506,554988
22508,555696
22510,555004
22513,555225
22515,554728
22517,555441
22520,554780
22522,555623
22524,554491
22528,555283
22530,554585
22532,555496
22535,554877
22537,554422
22539,554538
22542,555513
22544,554894
22546,554507
22549,555318
22551,555722
22553,555166
22556,554707
22558,555592
22560,555014
22563,555415
22565,555081
22567,555996
22569,555432
22573,556464
22575,555657
22577,556461
22580,555944
22582,557056
22584,556541
22587,556225
22589,556578
22591,557670
22594,557163
22596,557009
22598,557663
22601,558326
22603,557868
22605,557722
22608,558377
22610,557938
22612,558613
22616,558546
22618,559088
22620,558691
22623,559846
22625,559469
22627,559728
22630,559465
22632,560658
22634,560192
22637,560306
22639,560298
22641,561461
22644,560930
22646,561117
22648,561229
22651,562224
22653,561793
22656,561955
22658,561964
22661,561790
22663,562507
22665,562806
22668,562668
22670,562550
22672,563786
22675,563650
22677,563373
22679,563318
22682,564473
22684,563995
22686,564413
22689,563991
22691,565224
22693,564764
22696,565169
22699,564738
22701,565907
22704,565429
22706,565902
22708,565311
22711,565414
22713,566097
22715,566602
22718,566016
22720,566039
22722,567314
22725,566807
22727,566728
22729,566769
22732,568066
22734,567578
22736,568176
22739,567616
22742,568909
22744,568404
22746,569003
22749,568359
22751,569672
22753,569213
22756,569764
22758,569081
22760,569145
22763,569781
22765,570302
22767,569458
22770,569447
22772,570507
22774,569743
22777,569108
22779,568871
22781,569645
22785,568683
22787,568766
22789,566915
22792,567444
22794,566101
22796,565921
22799,564385
22801,563943
22803,562529
22806,562192
22808,560528
22810,559731
22813,558560
22815,558217
22817,556550
22820,555857
22822,556114
22824,554759
22827,553010
22830,552337
22832,552758
22834,551467
22837,551307
22839,549390
22841,549822
22844,548599
22846,548656
22848,547326
22851,547501
22853,546410
22855,546518
22858,545318
22860,545172
22862,544705
22865,544894
22867,543808
22870,543819
22873,544245
22875,543464
22877,542883
22880,543073
22882,543457
22884,542764
22887,543255
22889,542692
22891,542972
22894,542558
22896,543094
22898,542257
22901,542958
22903,542573
22905,543193
22908,542378
22910,543015
22913,543023
22916,543655
22918,542926
22920,543596
22922,543711
22925,543544
22927,543521
22929,544304
22932,544362
22934,544249
22936,544955
22939,545137
22941,545105
22943,544968
22946,545713
22948,545117
22950,545858
22953,545770
22956,546590
22958,545940
22961,546860
22963,546665
22965,547454
22968,546821
22970,547796
22972,547580
22975,547538
22977,547714
22979,548770
22982,548433
22984,548465
22986,549314
22989,549800
22991,549507
22993,549543
22996,550398
22999,549858
23001,550646
23003,550670
23006,551563
23008,550969
23010,552084
23013,551743
23015,552685
23017,552012
23020,553117
23022,552724
23024,552798
23027,552921
23029,554036
23031,553542
23034,553572
23036,554279
23038,554602
23042,554105
23044,554002
23046,554707
23049,553919
23051,554313
23053,554175
23056,554849
23058,553928
23060,554834
23063,554264
23065,554642
23067,553707
23070,554667
23072,553996
23074,553782
23077,553403
23079,554225
23081,553548
23085,553278
23087,553766
23089,553680
23091,553052
23094,552808
23096,553287
23098,552358
23101,552507
23103,552311
23105,552786
23108,551867
23110,552779
23112,552147
23115,552408
23117,551507
23119,552408
23122,551738
23124,551809
23127,551263
23130,552207
23132,551580
23134,551750
23137,551872
23139,552149
23141,551582
23144,551798
23146,551809
23148,551204
23151,551670
23153,551968
23155,551928
23158,551372
23160,552476
23162,551991
23165,552161
23168,551694
23170,552838
23173,552379
23175,552840
23177,552131
23179,553306
23182,552866
23184,553394
23186,553074
23189,553875
23191,553452
23193,554077
23196,553611
23198,553355
23200,554114
23203,554801
23205,554255
23207,553992
23211,555231
23213,554805
23215,554898
23218,554685
23220,555925
23222,555489
23225,556254
23227,555343
23229,556657
23232,556204
23234,557027
23236,556336
23239,557389
23241,556964
23243,557752
23246,557028
23248,556869
23250,558142
23254,558490
23256,557798
23258,557587
23261,558894
23263,558453
23265,558443
23267,558351
23270,559577
23272,559201
23274,560027
23277,559063
23279,560376
23281,559914
23284,560745
23286,559969
23288,561088
23291,560662
23293,561510
23296,560680
23299,560530
23301,561836
23303,562224
23306,561408
23308,561278
23310,562543
23313,562142
23315,562179
23317,561997
23320,563272
23322,562861
23324,563715
23327,562808
23329,564023
23331,563633
23334,564484
23336,563667
23339,564843
23342,564360
23344,565175
23346,564384
23349,564243
23351,565427
23353,565767
23355,564855
23358,564685
23360,565787
23362,565124
23365,564741
23367,564422
23369,565129
23372,564320
23374,564803
23376,562941
23379,563239
23382,562246
23384,562365
23387,560798
23389,560173
23391,559115
23394,559088
23396,557427
23398,556832
23401,556525
23403,555380
23405,553720
23408,553145
23410,552839
23412,551840
23415,550295
23417,549873
23419,549437
23422,548551
23425,548691
23427,546958
23430,546598
23432,545852
23434,546179
23436,544766
23439,544276
23441,543689
23443,544066
23446,542781
23448,542865
23450,542402
23453,542441
23455,541329
23457,541567
23460,541189
23462,540922
23464,540465
23468,540783
23470,540408
23472,540183
23475,540918
23477,540494
23479,540080
23482,539980
23484,540774
23486,539929
23489,540174
23491,540153
23493,540997
23496,540226
23498,540783
23500,540507
23503,541446
23505,540647
23507,541325
23511,541048
23513,541182
23515,541362
23518,542081
23520,541831
23522,541937
23524,542854
23527,542889
23529,542660
23531,542767
23534,543702
23536,542967
23538,543760
23541,543603
23543,544605
23545,543872
23548,544707
23550,544449
23553,545546
23556,544899
23558,545685
23560,545426
23563,545575
23565,545923
23567,546741
23570,546485
23572,546708
23574,547597
23577,547804
23579,547559
23581,547821
23584,548776
23586,548136
23588,549045
23591,548963
23593,549897
23596,549269
23599,550147
23601,549882
23603,551004
23606,550290
23608,551091
23610,550768
23612,551002
23615,551061
23617,551883
23619,551531
23622,551722
23624,552381
23626,552364
23629,551947
23631,552233
23633,552664
23636,551842
23639,552487
23641,552238
23644,552553
23646,551824
23648,552450
23651,551966
23653,552272
23655,551574
23658,552179
23660,551668
23662,552012
23665,551148
23667,551853
23669,551272
23672,551653
23674,551414
23676,551331
23680,550806
23682,551241
23684,550823
23687,550237
23689,550937
23691,550911
23694,550427
23696,549840
23698,550482
23700,549999
23703,550077
23705,549563
23707,550324
23710,549799
23712,550437
23714,549387
23717,550119
23719,549649
23721,550370
23725,549686
23727,550147
23729,549740
23732,550505
23734,549782
23736,549405
23739,550250
23741,550711
23743,549947
23746,549677
23748,550510
23750,550097
23753,550214
23755,549965
23757,550871
23760,550502
23762,551429
23764,550414
23768,551368
23770,551025
23772,551908
23775,551126
23777,551826
23779,551524
23782,552509
23784,551712
23786,551449
23788,552367
23791,553110
23793,552245
23795,552117
23798,553060
23800,552708
23802,552931
23805,552781
23808,553685
23810,553379
23813,554341
23815,553402
23817,554343
23820,554068
23822,555084
23824,554289
23827,554046
23829,554719
23831,555754
23834,554919
23836,554759
23838,555683
23841,556442
23843,555600
23845,555479
23848,556399
23851,556118
23853,556362
23856,556198
23858,557127
23860,556843
23863,557858
23865,556991
23867,557885
23870,557494
23872,558519
23874,557655
23876,557659
23879,558123
23881,559238
23883,558407
23886,558463
23888,559145
23890,559950
23894,559141
23896,559280
23898,559815
23901,559669
23903,559925
23905,560095
23908,560537
23910,560406
23912,561492
23915,560915
23917,561178
23919,561087
23922,562149
23924,561268
23926,561597
23929,561505
23931,562588
23933,561650
23937,561929
23939,561760
23941,562459
23944,561309
23946,561477
23948,561010
23951,560610
23953,559928
23955,559869
23958,559048
23960,558511
23962,558934
23964,557213
23967,556108
23969,555359
23971,555754
23974,554075
23976,553855
23979,551910
23982,552291
23984,550655
23986,550459
23989,549208
23991,548964
23993,547334
23996,547222
23998,546053
24000,545500
24003,544397
24005,544439
24007,543275
24010,542840
24012,543435
24014,542157
24017,541066
24019,540740
24022,541428
24025,540143
24027,540375
24029,539227
24032,540017
24034,538749
24036,539180
24039,538246
24041,539017
24043,537887
24045,538328
24048,537507
24050,537533
24052,537476
24055,538004
24057,537270
24059,537318
24062,538383
24065,538037
24067,537335
24070,537457
24072,538546
24074,537629
24077,538345
24079,537924
24081,538971
24084,538134
24086,538854
24088,538247
24091,539564
24093,538749
24095,539530
24098,538948
24100,539186
24102,539479
24105,540256
24108,539696
24110,539956
24113,541122
24115,540291
24117,540553
24120,540792
24122,541911
24124,541096
24127,541858
24129,541715
24131,542756
24133,541928
24136,542748
24138,542216
24140,543609
24143,542854
24145,543650
24147,543163
24151,543738
24153,543827
24155,544674
24158,544151
24160,544852
24162,545531
24165,544912
24167,545293
24169,545983
24172,546486
24174,545963
24176,546899
24179,547136
24181,547476
24183,546993
24186,547942
24188,547421
24190,548361
24194,547829
24196,548704
24198,548203
24201,548927
24203,548510
24205,549245
24208,548695
24210,549438
24212,549335
24215,548738
24217,548850
24219,549608
24221,549305
24224,548754
24226,549480
24228,549594
24231,549204
24233,548668
24236,549382
24239,548682
24241,548963
24243,548375
24246,549152
24248,548372
24250,549162
24253,547998
24255,548740
24257,548052
24260,548822
24262,548252
24264,547735
24267,547712
24269,548529
24271,547943
24274,547411
24276,548116
24279,548329
24282,547748
24284,547189
24286,547974
24289,547286
24291,547600
24293,547121
24296,547862
24298,547276
24300,548189
24303,547134
24305,547940
24307,547376
24309,548312
24312,547737
24314,547325
24316,547609
24320,548600
24322,548003
24324,547591
24327,548462
24329,548960
24331,548399
24334,548055
24336,548952
24338,548352
24341,548900
24343,548520
24345,549389
24348,548893
24350,549973
24352,549127
24355,550060
24357,549604
24359,550643
24363,550188
24365,549873
24367,550239
24370,551350
24372,550872
24374,550574
24377,551465
24379,552051
24381,551584
24384,551383
24386,552137
24388,551701
24391,552238
24393,552150
24395,552788
24397,552423
24400,553482
24402,552962
24404,553464
24408,553098
24410,554224
24412,553725
24415,553774
24417,553891
24419,554937
24422,554430
24424,554586
24426,554783
24429,555692
24431,555123
24433,555307
24436,555408
24438,555192
24440,555840
24443,556060
24445,556032
24448,555855
24451,557059
24453,556501
24455,556647
24458,556557
24460,557715
24462,557197
24465,557531
24467,557213
24469,558350
24472,557839
24474,558178
24476,557770
24479,558938
24481,558393
24483,558839
24485,558384
24488,558426
24491,559090
24493,559573
24496,559012
24498,559050
24500,560318
24503,559766
24505,559772
24507,559871
24510,561052
24512,560588
24514,561174
24517,560556
24519,561758
24521,561226
24524,561791
24526,561084
24528,562239
24531,561605
24534,562017
24536,561185
24539,561059
24541,561189
24543,561405
24546,560327
24548,559979
24550,560694
24553,559619
24555,558195
24557,557612
24560,558104
24562,556805
24564,556601
24567,554357
24569,554663
24571,553368
24573,553007
24577,551497
24579,551074
24581,549751
24584,549485
24586,547902
24588,547260
24591,546389
24593,546183
24595,544760
24598,544181
24600,544681
24602,543487
24605,542103
24607,541656
24609,542248
24612,541209
24614,541249
24616,539674
24620,540384
24622,539338
24624,539524
24627,538447
24629,539017
24631,538129
24634,538386
24636,537417
24638,537371
24641,537370
24643,537734
24645,536807
24648,536910
24650,537662
24652,537033
24654,536619
24657,536885
24659,537551
24662,537044
24665,537581
24667,537271
24669,537760
24672,537320
24674,537959
24676,537218
24679,538151
24681,537881
24683,538476
24686,537800
24688,538399
24690,538732
24693,539257
24695,538557
24697,539230
24700,539461
24702,539229
24705,539279
24708,540026
24710,540242
24712,540041
24715,540703
24717,540924
24719,540990
24722,540865
24724,541574
24726,540791
24729,541683
24731,541530
24733,542316
24736,541666
24738,542590
24740,542422
24742,543074
24745,542443
24748,543413
24750,543240
24753,543228
24755,543353
24757,544406
24760,544210
24762,544183
24764,545020
24767,545429
24769,545187
24771,545170
24774,546104
24776,545449
24778,546193
24781,546171
24783,547015
24785,546343
24788,547472
24791,547047
24793,547814
24796,547156
24798,548142
24800,547724
24803,547661
24805,547698
24807,548671
24810,548190
24812,548099
24814,548792
24817,548945
24819,548315
24821,548174
24824,548874
24826,548050
24828,548373
24830,548196
24834,548798
24836,547895
24838,548796
24841,548176
24843,548551
24845,547677
24848,548546
24850,547902
24852,547702
24855,547293
24857,548227
24859,547600
24862,547328
24864,547912
24866,547856
24869,547201
24871,547023
24873,547560
24877,546677
24879,546972
24881,546760
24884,547348
24886,546434
24888,547339
24891,546798
24893,547224
24895,546428
24898,547298
24900,546760
24902,546752
24905,546392
24907,547422
24909,546876
24912,546928
24914,547296
24916,547631
24919,547106
24922,547293
24924,547515
24926,546916
24929,547453
24931,547733
24933,547837
24936,547325
24938,548413
24940,547968
24943,548322
24945,547836
24947,548973
24950,548560
24952,548928
24954,548509
24957,549641
24960,549199
24962,549698
24965,549442
24967,550323
24969,549867
24972,550430
24974,550167
24976,549835
24979,551007
24981,551230
24983,550790
24986,550512
24988,551706
24990,551312
24993,551466
24995,551202
24997,552420
25000,552064
25003,552753
