=~=~=~=~=~=~=~=~=~=~=~= PuTTY log 2021.02.21 12:52:19 =~=~=~=~=~=~=~=~=~=~=~=
073,593268
143076,593059
280966,620519
280968,621669
280970,621047
280972,622091
280974,621742ŠIntilazition AFE44xx.. 
intilazition is done
time(ms),ppg
3001,626062
3002,626062
3004,627014
3006,626863
3008,626606
3010,627697
3011,627171
3013,628138
3015,627926
3017,627742
3019,628815
3021,628254
3023,629276
3025,629055
3027,628901
3030,629943
3032,629427
3034,630426
3036,630127
3038,630072
3040,631194
3042,630624
3044,631233
3046,631205
3049,632319
3051,631730
3053,632735
3055,632193
3057,632292
3059,633314
3062,632684
3064,633016
3066,633173
3068,634124
3070,633423
3073,634323
3075,633677
3078,633811
3080,634564
3082,633848
3084,634646
3086,633982
3088,634639
3091,633723
3093,634478
3095,633579
3097,633763
3099,634194
3101,633139
3104,633762
3106,632798
3108,633025
3110,631734
3112,631906
3115,630370
3117,629814
3120,629312
3122,627293
3124,626815
3126,624779
3128,622849
3130,620512
3133,619768
3135,617453
3137,616329
3139,615159
3141,612708
3143,611921
3146,609531
3148,607318
3150,604886
3152,604076
3154,601897
3156,601055
3159,600094
3162,597941
3164,597400
3166,595474
3168,594879
3170,592275
3172,591986
3175,590366
3177,590149
3179,589806
3181,588214
3183,588339
3185,586998
3188,587157
3190,585755
3192,586114
3194,585151
3196,585541
3198,585582
3201,584588
3204,585189
3206,584357
3208,584959
3210,585137
3212,585073
3214,584310
3217,585071
3219,585193
3221,584539
3223,585414
3225,584806
3227,585643
3230,585756
3232,586167
3234,585647
3236,586543
3238,586571
3240,586234
3243,587261
3246,586772
3248,587713
3250,587789
3252,587560
3254,588210
3256,589197
3259,589251
3261,589110
3263,590325
3265,589938
3267,591014
3269,590997
3272,590959
3274,591846
3276,592995
3278,592998
3280,593046
3282,594353
3286,594042
3288,595165
3290,595074
3292,595216
3294,596513
3296,597342
3298,597188
3301,597399
3303,598657
3305,598355
3307,599508
3309,599342
3311,599631
3314,600903
3316,600503
3318,601405
3320,601786
3322,603007
3324,602638
3328,603880
3330,603655
3332,604157
3334,605277
3336,604928
3338,605814
3340,606339
3343,607346
3345,606936
3347,608100
3349,607725
3351,608363
3353,609383
3356,608928
3358,610033
3360,610269
3362,611190
3364,610655
3366,611779
3369,611324
3372,612033
3374,612879
3376,612294
3378,613396
3380,613568
3382,614291
3385,613652
3387,614665
3389,614091
3391,614793
3393,615434
3395,614784
3398,615728
3400,615139
3402,616498
3404,615786
3406,616729
3408,616172
3411,616914
3414,617433
3416,616686
3418,617654
3420,617006
3422,618329
3424,617526
3427,618477
3429,617837
3431,618598
3433,619117
3435,618366
3437,619238
3440,618591
3442,619329
3444,619014
3446,619808
3448,619218
3450,620031
3453,620485
3456,619745
3458,620573
3460,619945
3462,620778
3464,620445
3466,621339
3469,620660
3471,621515
3473,621729
3475,621145
3477,622104
3479,621489
3482,622335
3484,622445
3486,622919
3488,622307
3490,623248
3492,623288
3495,622799
3497,623816
3500,623238
3502,624156
3504,624105
3506,624740
3508,624202
3511,625099
3513,624957
3515,624734
3517,625793
3519,625222
3521,626113
3524,625954
3526,625710
3528,626217
3530,627140
3532,626893
3534,626757
3537,627795
3539,627248
3542,628174
3544,627909
3546,627751
3548,628330
3550,629279
3553,628893
3555,628866
3557,629884
3559,629357
3561,630339
3563,629941
3566,629988
3568,631034
3570,631468
3572,631035
3574,631156
3576,632210
3579,631592
3581,632571
3584,632088
3586,632361
3588,633305
3590,633679
3592,633152
3595,633515
3597,634466
3599,633854
3601,634844
3603,634369
3605,634833
3608,635638
3610,635092
3612,635505
3614,636008
3616,636807
3618,636201
3621,637176
3623,636648
3625,637161
3628,637924
3630,637265
3632,637616
3635,638150
3637,638795
3639,638059
3641,638998
3643,638345
3645,638978
3647,639559
3650,638761
3652,639661
3654,639596
3656,640095
3658,639236
3660,640009
3663,639292
3665,639838
3667,640182
3670,639213
3672,639973
3674,639578
3677,639827
3679,638711
3681,639280
3683,638210
3685,638403
3687,638063
3689,636386
3692,636129
3694,634194
3696,632487
3698,630049
3700,629156
3702,626748
3705,625637
3707,624066
3709,621325
3712,620181
3714,617489
3716,614445
3719,611749
3721,610621
3723,608030
3725,606885
3727,605234
3729,602713
3731,601779
3734,599422
3736,598560
3738,594958
3740,594461
3742,592405
3744,591938
3747,590650
3749,589009
3751,588824
3753,587195
3756,587148
3758,584909
3761,585153
3763,583893
3765,584118
3767,583458
3769,582594
3771,583101
3773,582135
3776,582671
3778,582141
3780,582312
3782,581483
3784,582183
3786,581781
3789,581348
3791,582242
3793,581512
3795,582284
3798,581867
3800,581648
3803,581929
3805,582784
3807,582331
3809,582276
3811,583223
3813,582665
3815,583595
3818,583236
3820,583285
3822,583787
3824,584812
3826,584473
3828,584675
3831,585783
3833,585331
3835,586393
3837,586106
3840,586462
3842,587545
3845,588281
3847,588028
3849,588568
3851,589631
3853,589230
3855,590407
3857,590166
3860,590778
3862,591854
3864,592725
3866,592430
3868,593140
3870,594165
3873,593814
3875,594997
3877,594735
3879,595556
3881,596604
3884,596180
3887,597116
3889,597956
3891,598873
3893,598541
3895,599753
3897,599441
3899,600353
3902,601235
3904,600857
3906,601709
3908,602701
3910,603547
3912,603121
3915,604309
3917,603976
3919,604938
3921,605712
3923,605230
3926,606420
3929,607000
3931,607790
3933,607248
3935,608356
3937,607966
3939,608957
3941,609665
3944,609152
3946,610166
3948,610719
3950,611317
3952,610710
3954,611733
3957,611269
3959,612186
3961,612761
3963,612155
3965,613162
3968,612677
3971,614035
3973,613416
3975,614405
3977,613871
3979,614754
3981,615093
3983,614527
3986,615449
3988,614961
3990,616043
3992,615519
3994,616459
3996,615855
3999,616802
4001,616834
4003,616380
4005,617335
4007,616730
4009,617636
4013,617192
4015,618203
4017,617588
4019,618461
4021,618301
4023,617942
4026,618944
4028,618296
4030,619193
4032,618660
4034,619630
4036,619017
4038,619954
4041,619683
4043,619447
4045,620396
4047,619767
4049,620650
4051,620273
4055,621116
4057,620507
4059,621434
4061,621071
4063,620916
4065,622014
4068,621442
4070,622481
4072,621983
4074,623114
4076,622611
4078,623653
4080,623193
4083,623310
4085,624431
4087,623931
4089,624907
4091,624449
4093,624717
4097,625147
4099,626155
4101,625747
4103,626076
4105,627048
4107,626470
4110,627498
4112,626985
4114,627420
4116,627675
4118,628748
4120,628188
4122,628656
4125,629491
4127,628872
4129,629887
4131,629377
4133,629964
4135,630745
4139,631133
4141,630615
4143,631289
4145,632038
4147,631462
4149,632508
4152,632048
4154,632745
4156,633470
4158,633863
4160,633367
4162,634121
4164,634822
4167,634240
4169,635187
4171,634701
4173,635554
4175,636236
4177,635564
4180,636041
4183,636845
4185,637475
4187,636790
4189,637806
4191,637251
4194,638114
4196,638715
4198,638023
4200,638433
4202,639342
4204,639818
4206,639127
4209,640110
4211,639466
4213,640356
4215,640751
4217,640024
4219,640935
4222,641148
4225,641445
4227,640683
4229,641570
4231,640787
4233,641593
4236,641756
4238,640984
4240,641774
4242,640964
4244,641659
4246,640786
4248,641443
4251,640600
4253,641231
4255,641012
4257,640070
4259,640726
4261,639668
4264,639685
4267,638728
4269,639219
4271,637979
4273,638260
4275,637408
4278,636180
4280,636302
4282,634637
4284,634455
4286,631556
4288,631371
4290,629481
4293,629130
4295,627569
4297,626103
4299,625881
4301,624011
4303,623691
4306,620898
4308,620786
4311,619106
4313,619016
4315,617639
4317,616588
4320,616687
4322,615240
4324,615416
4326,614184
4328,613734
4330,612504
4332,612848
4335,611737
4337,611182
4339,611712
4341,610675
4343,611185
4345,610186
4348,610541
4350,609623
4353,610302
4355,609438
4357,609465
4359,610049
4362,609210
4364,609975
4366,609222
4368,609381
4370,609307
4372,610162
4374,609415
4377,609731
4379,610438
4381,609665
4383,610537
4385,609897
4387,610287
4390,610325
4392,611225
4395,610534
4397,611096
4399,611761
4401,611020
4404,612034
4406,611398
4408,612018
4410,612634
4412,612896
4414,612366
4417,613061
4419,613762
4421,613043
4423,614033
4425,613440
4427,614234
4429,614885
4432,615205
4434,614693
4436,615532
4439,616176
4441,615559
4443,616564
4446,616086
4448,616960
4450,617572
4452,617001
4454,617489
4456,618430
4459,619061
4461,618458
4463,619505
4465,618952
4467,619944
4469,620486
4471,619876
4474,620385
4476,621352
4478,621839
4481,621269
4483,622257
4485,621814
4488,622718
4490,623105
4492,622515
4494,623545
4496,623932
4498,624169
4501,623672
4503,624689
4505,624161
4507,625051
4509,625256
4511,624773
4513,625741
4516,626085
4518,626081
4520,625685
4523,626623
4525,626059
4527,626966
4530,626893
4532,626520
4534,627507
4536,626915
4538,627622
4540,627306
4543,628226
4545,627669
4547,628551
4549,628268
4551,627946
4553,628912
4555,628356
4558,628824
4560,628546
4562,629500
4564,628893
4567,629743
4569,629252
4572,629143
4574,630006
4576,629356
4578,630170
4580,629546
4582,630464
4585,629790
4587,630615
4589,630006
4591,629885
4593,630725
4595,630069
4597,630857
4600,630249
4602,631020
4604,630333
4606,631033
4609,630313
4611,630435
4614,631217
4616,630513
4618,631301
4620,630632
4622,631556
4624,630791
4627,631562
4629,630963
4631,631236
4633,631918
4635,631177
4637,631998
4639,631346
4642,632328
4644,631661
4646,632478
4648,631849
4651,632321
4653,632976
4656,632230
4658,633093
4660,632493
4662,633021
4664,632891
4666,633774
4669,633177
4671,633849
4673,634447
4675,633711
4677,634595
4679,634069
4681,634685
4684,635249
4686,635477
4688,634932
4690,635629
4692,636175
4695,635519
4698,636425
4700,635894
4702,636672
4704,637212
4706,637468
4708,636935
4711,637763
4713,638320
4715,637632
4717,638562
4719,638063
4721,638898
4723,639413
4726,638790
4728,639308
4730,640193
4732,640670
4734,640113
4737,641070
4740,640564
4742,641461
4744,641886
4746,641290
4748,641741
4750,642672
4753,642946
4755,642493
4757,643479
4759,642985
4761,643930
4763,644089
4766,643636
4768,644672
4770,644997
4772,645002
4774,644628
4776,645572
4779,644994
4782,645950
4784,645832
4786,645445
4788,646487
4790,646570
4792,646285
4795,645823
4797,646765
4799,646026
4801,646775
4803,646386
4805,645960
4808,646722
4810,645903
4812,646004
4814,645509
4816,646218
4818,645265
4820,645819
4824,645072
4826,644455
4828,645066
4830,643968
4832,643336
4834,642698
4837,643108
4839,641888
4841,642161
4843,641045
4845,640345
4847,640646
4850,639318
4852,639521
4854,637614
4856,637777
4858,636496
4860,636612
4862,635260
4866,634727
4868,634833
4870,633435
4872,633655
4874,631894
4876,632061
4879,630719
4881,630951
4883,629704
4885,629426
4887,629531
4889,628251
4892,628630
4894,627478
4896,627522
4898,626371
4900,626769
4902,625676
4904,625769
4908,625946
4910,624820
4912,625335
4914,624345
4916,624840
4918,623824
4921,624373
4923,623430
4925,623844
4927,624114
4929,623157
4931,623802
4934,622966
4936,623444
4938,622889
4940,623664
4942,622870
4944,623446
4946,623888
4950,623039
4952,623837
4954,623105
4956,623773
4958,623435
4960,624263
4963,623623
4965,624323
4967,624715
4969,623971
4971,624837
4973,624190
4976,624992
4978,625367
4980,625542
4982,624891
4984,625700
4986,626118
4988,625457
4992,626411
4994,625815
4996,626640
4998,627012
5000,627342
5002,626763
5005,627686
5007,628008
5009,627481
5011,628431
5013,627931
5015,628873
5018,629088
5020,628658
5022,629220
5024,630135
5026,630257
5028,629860
5030,630857
5033,630333
5036,631306
5038,631285
5040,630954
5042,631971
5044,632293
5047,632217
5049,631883
5051,632869
5053,632247
5055,633078
5057,632836
5060,632597
5062,633451
5064,633681
5066,633330
5068,633041
5070,633981
5073,633270
5075,634045
5078,633668
5080,633363
5082,634311
5084,633646
5086,633871
5089,633657
5091,634548
5093,633842
5095,634635
5097,634006
5099,633860
5102,634693
5104,633899
5106,634115
5108,634131
5110,634937
5112,634208
5114,634973
5117,634299
5120,634366
5122,635091
5124,634321
5126,635111
5128,634573
5131,635268
5133,634505
5135,635279
5137,634537
5139,634796
5141,635434
5144,634606
5146,635380
5148,634951
5150,635544
5152,634743
5154,635500
5157,634813
5159,635221
5161,635793
5164,634993
5166,635771
5168,635108
5170,636098
5173,635288
5175,636118
5177,635436
5179,635977
5181,636483
5183,635688
5186,636467
5188,635743
5190,636766
5192,636008
5194,636799
5196,636118
5199,636775
5201,637218
5203,636400
5206,637192
5208,636526
5210,637212
5212,636871
5215,637697
5217,636985
5219,637710
5221,638157
5223,637371
5225,638191
5228,637552
5230,638287
5232,637895
5234,638732
5236,638135
5238,638882
5241,639256
5243,638513
5245,639369
5248,638749
5250,639478
5252,639813
5254,640041
5257,639429
5259,640189
5261,640415
5263,639827
5265,640683
5267,640045
5270,640846
5272,640947
5274,641277
5276,640726
5278,641488
5280,641510
5283,641031
5285,641903
5287,641279
5289,642103
5292,641925
5294,641498
5296,641778
5299,642648
5301,642428
5303,642019
5305,642902
5307,642310
5309,643078
5312,642768
5314,642455
5316,642672
5318,643445
5320,643027
5322,642666
5325,643471
5327,642718
5329,643448
5331,642918
5334,642539
5336,643344
5338,643156
5341,642424
5343,641954
5345,642574
5347,641590
5349,642071
5351,641208
5354,640728
5356,641231
5358,640482
5360,639408
5362,638872
5364,639188
5367,637935
5369,638155
5371,636951
5373,636462
5376,636657
5378,635296
5380,634227
5383,633784
5385,633859
5387,632467
5389,632669
5391,631352
5393,630961
5396,630986
5398,629586
5400,628467
5402,628135
5404,628136
5406,626758
5409,626934
5411,625642
5413,625447
5415,625439
5417,624088
5420,624304
5422,622980
5425,622998
5427,621703
5429,621949
5431,620826
5433,620833
5435,620928
5438,619658
5440,620080
5442,619099
5444,619196
5446,618080
5448,618530
5451,617503
5453,617770
5455,617939
5457,616957
5459,617508
5462,616581
5464,617211
5467,616240
5469,616821
5471,616008
5473,616531
5475,616771
5477,615853
5480,616559
5482,615776
5484,616707
5486,615882
5488,616677
5490,615987
5493,616730
5495,616992
5497,616214
5499,617062
5501,616361
5504,617124
5506,616686
5509,617513
5511,616890
5513,617690
5515,617827
5517,617233
5519,618140
5522,617588
5524,618387
5526,618567
5528,618977
5530,618393
5532,619267
5535,619429
5537,618987
5539,619980
5541,619443
5543,620382
5545,620428
5549,621100
5551,620615
5553,621514
5555,621485
5557,621229
5559,622310
5561,621760
5564,622669
5566,622596
5568,622382
5570,622914
5572,623774
5574,623573
5577,623446
5579,624445
5581,623942
5583,624880
5585,624595
5587,624509
5591,624892
5593,625789
5595,625429
5597,625333
5599,626347
5601,625794
5603,626609
5606,626211
5608,626095
5610,627055
5612,627325
5614,626816
5616,626763
5619,627636
5621,627000
5623,627816
5625,627197
5627,627326
5629,628106
5633,628228
5635,627569
5637,627750
5639,628451
5641,627748
5643,628501
5645,627842
5648,628087
5650,628730
5652,627959
5654,628042
5656,628335
5658,628909
5661,628042
5663,628842
5665,628142
5667,628407
5669,628994
5671,628177
5675,628191
5677,628610
5679,629119
5681,628314
5683,629052
5685,628345
5687,628836
5690,629299
5692,628527
5694,629249
5696,629005
5698,629489
5700,628629
5703,629431
5705,628772
5707,629333
5709,629726
5711,628954
5713,629753
5716,629620
5719,630039
5721,629172
5723,629918
5725,629267
5727,629934
5729,630300
5732,629495
5734,630262
5736,629582
5738,630642
5740,629800
5742,630585
5745,629877
5747,630691
5749,630964
5751,630233
5753,631027
5755,630331
5758,631400
5761,630738
5763,631553
5765,630875
5767,631689
5769,631865
5771,631266
5774,632180
5776,631475
5778,632282
5780,631923
5782,632838
5784,632311
5787,633112
5789,633144
5791,632674
5793,633562
5795,632968
5797,633872
5800,633458
5803,634445
5805,633892
5807,634742
5809,634668
5811,634291
5813,635311
5816,634746
5818,635644
5820,635445
5822,636196
5824,635678
5826,636490
5829,636252
5831,636002
5833,636914
5835,636325
5837,637175
5839,636742
5842,637438
5844,636801
5847,637583
5849,637094
5851,636848
5853,637642
5855,636958
5858,637672
5860,637054
5862,636785
5864,636650
5866,637287
5868,636509
5871,636218
5873,636746
5875,635680
5877,635905
5879,634597
5881,633711
5884,631310
5886,630530
5889,628233
5891,626508
5893,625312
5895,622622
5898,621375
5900,618639
5902,616704
5904,615193
5906,610898
5908,608092
5910,606273
5913,604726
5915,601940
5917,600659
5919,598068
5921,596487
5923,595182
5926,591713
5928,589401
5931,588252
5933,587296
5935,585169
5937,584738
5940,582880
5942,582277
5944,581755
5946,580019
5948,578544
5950,578358
5952,578225
5955,576834
5957,577057
5959,575911
5961,576045
5963,576026
5965,574788
5968,574265
5970,574567
5972,574736
5975,573653
5977,574268
5979,573322
5982,573840
5984,574063
5986,572998
5988,573672
5990,573495
5992,573758
5994,572807
5997,573596
5999,572799
6001,573450
6003,573753
6005,572922
6007,573728
6010,573756
6012,574001
6014,573245
6017,574101
6019,573393
6021,574202
6024,574426
6026,573761
6028,574644
6030,574046
6032,575063
6034,574540
6036,575447
6039,574843
6041,575736
6043,575861
6045,575392
6047,576424
6049,575899
6052,576911
6054,576580
6056,577639
6059,577161
6061,578190
6063,578217
6066,577948
6068,579095
6070,578664
6072,579675
6074,579480
6076,580666
6078,580208
6081,581256
6083,581119
6085,581002
6087,582138
6089,581631
6091,582640
6094,582189
6096,583260
6098,582676
6100,583662
6103,583241
6105,583112
6108,584114
6110,583456
6112,584290
6114,583844
6116,584619
6118,583875
6120,584655
6123,584016
6125,583904
6127,584699
6129,583875
6131,584606
6133,583870
6136,584513
6138,583581
6140,584262
6142,583432
6145,583384
6147,583954
6150,582976
6152,583600
6154,582706
6156,582687
6158,582223
6160,582784
6162,581852
6165,582016
6167,582371
6169,581336
6171,581922
6173,581003
6175,581143
6178,581527
6180,581141
6182,580208
6184,580437
6187,580845
6189,579835
6192,580434
6194,579483
6196,579842
6198,580107
6200,579700
6202,578919
6204,579244
6207,579645
6209,578657
6211,579442
6213,578507
6215,579030
6217,579380
6220,578472
6222,578354
6224,578893
6226,579228
6228,578282
6231,579027
6234,578234
6236,578826
6238,579137
6240,578216
6242,578224
6244,578940
6246,579281
6249,578427
6251,579197
6253,578473
6255,579198
6257,579512
6259,578722
6262,579537
6264,579547
6266,579845
6268,579105
6270,579898
6273,579210
6276,580010
6278,580274
6280,579573
6282,580449
6284,580549
6286,580701
6289,580087
6291,581002
6293,580380
6295,581282
6297,581337
6299,580824
6301,581770
6304,581189
6306,582128
6308,581731
6310,582728
6312,582141
6315,583084
6318,582995
6320,582667
6322,583727
6324,583139
6326,583941
6328,583698
6331,584748
6333,584234
6335,585155
6337,584963
6339,584823
6341,585960
6343,585421
6346,586393
6348,586108
6350,587203
6352,586639
6354,587670
6356,587399
6360,587446
6362,588506
6364,588005
6366,589039
6368,588739
6370,589871
6373,589324
6375,590363
6377,590040
6379,590131
6381,591209
6383,590672
6385,591676
6388,591269
6390,592392
6392,591843
6394,592793
6396,592275
6398,592478
6402,593315
6404,592633
6406,593395
6408,592658
6410,593184
6412,592134
6415,592577
6417,591397
6419,591083
6421,591002
6423,589468
6425,589345
6427,587630
6430,586882
6432,584163
6434,583588
6436,581501
6438,580360
6440,579456
6444,577135
6446,576334
6448,574088
6450,573014
6452,569917
6454,569353
6457,567370
6459,566645
6461,566022
6463,564148
6465,563911
6467,562273
6469,561996
6472,561605
6474,560102
6476,558731
6478,558777
6480,558609
6482,557207
6486,557521
6488,556436
6490,556602
6492,556532
6494,555794
6496,554799
6499,555152
6501,555324
6503,554245
6505,554750
6507,553852
6509,554392
6511,554538
6514,553603
6516,553319
6518,554010
6520,554186
6522,553297
6524,553986
6528,553264
6530,553923
6532,554019
6534,553232
6536,553246
6538,553927
6541,554037
6543,553374
6545,554170
6547,553482
6549,554269
6551,554297
6553,553725
6556,554534
6558,554711
6560,554669
6562,554208
6564,555009
6566,554507
6569,555331
6572,555143
6574,554720
6576,555628
6578,555845
6580,555711
6583,555386
6585,556265
6587,555747
6589,556672
6591,556459
6593,556248
6595,557198
6598,556706
6600,557410
6602,557331
6604,558314
6606,557812
6608,558758
6611,558515
6614,558512
6616,559593
6618,559192
6620,559915
6622,559982
6625,561084
6627,560629
6629,561731
6631,561441
6633,561600
6635,562694
6637,562314
6640,563407
6642,563442
6644,564622
6646,564236
6648,565365
6650,565104
6653,565590
6656,566713
6658,566379
6660,567503
6662,567779
6664,568796
6667,568405
6669,569568
6671,569270
6673,569919
6675,570920
6677,570537
6680,571715
6682,571413
6684,572976
6686,572603
6688,573716
6690,573370
6692,574167
6695,574969
6697,574530
6700,575654
6702,575342
6704,576085
6706,576412
6709,577469
6711,577091
6713,577855
6715,578625
6717,578132
6719,579178
6722,578732
6724,579471
6726,579633
6728,580629
6730,580146
6732,580884
6734,581473
6737,580845
6739,581740
6742,581223
6744,581942
6746,582462
6748,582723
6751,582160
6753,582941
6755,583377
6757,582608
6759,583543
6761,582912
6764,583639
6766,584058
6768,584160
6770,583564
6772,584319
6774,584759
6776,584111
6779,584950
6781,584407
6784,585289
6786,585633
6788,584948
6790,585203
6793,586034
6795,586199
6797,585620
6799,586525
6801,585977
6803,586813
6806,586993
6808,586453
6810,586804
6812,587695
6814,587741
6816,587206
6818,588187
6821,587583
6823,588444
6825,588412
6828,587963
6830,588916
6832,589330
6835,589178
6837,588861
6839,589812
6841,589205
6843,590091
6845,589863
6848,589608
6850,590575
6852,590837
6854,590556
6856,590311
6858,591308
6860,590675
6863,591518
6865,591105
6867,590894
6870,591809
6872,591131
6874,591441
6877,591325
6879,592208
6881,591541
6883,592373
6885,591820
6887,591768
6890,592662
6892,592035
6894,592299
6896,592343
6898,593252
6900,592581
6902,593417
6905,592839
6907,592918
6909,593754
6912,593089
6914,593948
6916,593618
6919,594461
6921,593741
6923,594619
6925,593999
6927,594380
6929,595128
6932,594470
6934,595308
6936,595073
6938,595740
6940,595068
6942,595930
6944,595278
6947,595694
6949,596331
6951,595563
6953,596431
6956,595703
6958,596689
6961,595884
6963,596634
6965,595895
6967,596289
6969,596717
6971,595815
6974,596507
6976,595652
6978,596274
6980,595180
6982,595601
6984,594476
6986,594494
6989,594287
6991,592749
6993,592688
6995,591049
6998,590556
7000,587732
7003,587100
7005,584886
7007,583970
7009,582628
7011,580117
7013,579128
7016,576536
7018,575453
7020,571213
7022,570202
7024,567707
7026,566636
7029,565376
7031,562954
7033,562260
7035,560322
7037,559835
7040,558885
7042,557008
7045,555441
7047,555419
7049,554836
7051,553485
7053,553732
7055,552531
7058,552785
7060,552355
7062,551702
7064,550664
7066,551114
7068,550762
7071,549967
7073,550603
7075,549698
7077,550266
7079,549985
7081,549291
7084,549191
7087,549901
7089,549584
7091,549020
7093,549869
7095,549142
7097,549840
7100,549437
7102,549090
7104,549289
7106,550062
7108,549688
7110,549354
7113,550274
7115,549597
7117,550493
7119,550007
7121,549826
7123,550774
7126,550978
7129,550500
7131,550355
7133,551331
7135,550744
7137,551615
7139,551109
7142,551058
7144,552018
7146,552328
7148,551819
7150,551886
7152,552882
7155,552230
7157,553128
7159,552614
7161,552827
7163,553797
7165,553153
7168,553569
7171,553934
7173,554775
7175,554246
7177,555290
7179,554744
7181,555157
7184,556124
7186,555589
7188,556174
7190,556750
7192,557697
7194,557190
7197,558308
7199,557904
7201,558613
7203,559525
7205,559024
7207,560204
7209,560575
7213,561479
7215,560970
7217,562178
7219,561790
7221,562670
7223,563568
7226,563052
7228,564294
7230,563868
7232,565646
7234,565097
7236,566317
7239,565877
7241,566835
7243,567619
7245,567057
7247,568222
7249,567762
7251,569461
7255,568844
7257,570013
7259,569517
7261,570507
7263,571202
7265,570540
7268,571674
7270,571169
7272,572139
7274,572184
7276,573267
7278,572727
7281,573748
7283,574357
7285,573712
7287,574761
7289,574246
7291,575268
7293,575113
7297,576183
7299,575662
7301,576718
7303,577077
7305,576461
7307,577487
7310,576888
7312,577863
7314,578099
7316,578606
7318,578024
7320,579043
7323,579104
7325,578584
7327,579693
7329,579068
7331,580037
7333,580022
7335,580724
7339,580142
7341,581094
7343,580997
7345,580623
7347,581735
7349,581090
7352,582163
7354,581994
7356,581703
7358,582276
7360,583291
7362,583083
7365,582852
7367,584071
7369,583444
7371,584461
7373,584138
7375,583907
7377,584550
7380,585592
7383,585196
7385,585170
7387,586323
7389,585710
7391,586771
7394,586315
7396,586396
7398,587553
7400,588054
7402,587587
7404,587687
7407,588871
7409,588292
7411,589398
7413,588897
7424,590145
7425,590546
7426,590546
7428,591534
7430,590871
7432,591955
7434,591399
7436,591869
7438,592764
7440,592096
7442,593122
7443,592466
7445,593042
7447,593960
7449,593177
7451,594213
7453,593607
7455,594250
7457,595010
7459,594242
7461,595358
7463,594692
7465,595327
7468,596040
7470,595337
7472,596356
7474,595752
7476,596456
7478,597194
7480,596432
7482,597477
7484,597629
7486,598265
7488,597553
7491,598625
7493,597979
7495,598793
7497,599480
7499,598743
7501,599747
7504,600016
7506,600603
7508,599833
7511,600922
7513,600323
7515,601180
7517,601769
7520,600994
7522,602024
7524,601422
7526,602938
7528,602108
7530,603177
7533,602560
7535,603478
7537,603974
7539,603229
7541,604290
7543,603689
7546,605022
7548,604297
7550,605353
7553,604670
7555,605626
7557,605902
7559,605225
7562,606268
7564,605608
7566,606558
7568,606089
7570,607091
7572,606374
7575,607235
7577,607265
7579,606700
7581,607632
7583,606911
7585,607779
7588,606970
7590,607878
7592,607085
7595,607904
7597,607506
7599,606905
7601,607699
7604,606755
7606,607430
7608,606854
7610,606906
7612,605920
7614,606443
7617,605645
7619,604939
7621,605486
7623,604249
7625,604632
7627,603477
7630,602621
7632,601021
7634,600988
7636,599511
7639,598298
7641,598307
7643,596505
7646,596422
7648,594830
7650,593700
7652,591963
7654,591878
7656,590274
7659,589293
7661,589327
7663,587704
7665,587811
7667,586286
7669,585578
7672,584277
7674,584502
7676,583166
7678,582760
7681,583044
7683,581713
7685,582065
7688,580966
7690,580782
7692,581144
7694,580556
7696,579521
7698,579644
7701,580086
7703,579018
7705,579669
7707,578745
7709,579030
7711,579535
7714,579334
7716,578557
7718,578908
7720,579402
7723,578478
7725,579294
7727,578505
7730,578965
7732,579494
7734,578659
7736,578760
7738,579284
7740,579822
7743,579047
7745,579880
7747,579153
7749,579796
7751,580258
7753,579465
7756,579674
7758,580445
7760,580931
7762,580096
7764,581056
7767,580306
7769,581125
7772,581658
7774,580856
7776,581824
7778,582030
7780,582560
7782,581769
7785,582732
7787,582166
7789,583084
7791,583537
7793,582862
7795,583835
7798,583252
7800,584621
7802,583937
7804,584987
7806,584394
7809,585331
7812,585706
7814,585115
7816,586133
7818,585582
7820,586789
7822,586234
7824,587274
7827,586721
7829,587641
7831,587753
7833,587266
7835,588307
7837,587720
7840,588642
7842,588260
7844,589306
7846,588648
7848,589553
7851,589521
7854,589082
7856,590118
7858,589506
7860,590426
7862,589869
7864,590860
7866,590249
7869,591097
7871,590791
7873,590467
7875,591523
7877,590793
7879,591688
7882,591353
7884,592044
7886,591287
7888,592169
7890,591722
7892,591445
7896,592419
7898,591708
7900,592570
7902,591992
7904,592659
7906,591874
7908,592678
7911,592027
7913,591889
7915,592665
7917,591920
7919,592696
7921,591926
7924,591876
7926,591834
7928,592609
7930,591846
7932,591878
7934,592662
7938,591756
7940,592554
7942,591747
7944,591972
7946,591797
7948,592634
7950,591853
7953,592109
7955,592691
7957,591799
7959,592571
7961,591753
7963,592114
7966,592607
7968,592543
7970,591729
7972,592193
7974,592736
7976,591872
7980,592642
7982,591951
7984,592383
7986,592966
7988,593010
7990,592291
7992,592885
7995,593417
7997,592652
7999,593538
8001,592892
8003,593540
8005,594179
8008,593368
8010,593694
8012,594394
8014,595008
8016,594270
8018,595210
8022,594594
8024,595383
8026,595966
8028,595299
8030,595639
8032,596543
8034,597018
8037,596294
8039,597256
8041,596687
8043,597581
8045,598076
8047,597301
8050,598291
8052,598637
8054,599106
8056,598428
8058,599380
8060,598801
8064,599702
8066,599980
8068,599359
8070,600364
8072,600588
8074,600905
8077,600346
8079,601318
8081,600771
8083,601702
8085,601839
8087,601324
8089,602318
8092,601739
8094,602671
8096,602259
8098,603248
8100,602673
8102,603604
8105,603595
8108,603233
8110,604309
8112,603685
8114,604468
8116,604124
8118,605165
8121,604555
8123,605494
8125,605249
8127,604990
8129,606039
8131,605418
8134,606315
8136,605853
8138,606894
8140,606319
8142,607305
8144,606882
8147,606756
8150,607818
8152,607213
8154,608180
8156,607617
8158,608640
8161,608022
8163,608950
8165,608419
8167,608374
8169,609400
8171,608683
8173,609622
8176,609066
8178,610056
8180,609421
8182,610275
8184,609611
8186,609738
8189,610560
8192,609792
8194,610633
8196,609918
8198,610816
8200,610006
8203,610860
8205,610097
8207,610338
8209,610951
8211,610025
8213,610851
8215,610049
8218,610260
8220,609753
8222,610308
8224,609211
8226,609121
8228,609039
8231,607446
8233,607314
8236,605537
8238,604758
8240,601718
8242,601023
8245,598695
8247,597543
8249,596400
8251,593761
8253,592782
8255,590265
8257,589017
8260,587620
8262,583933
8264,581319
8266,580149
8268,578775
8270,576227
8273,575405
8275,573074
8278,572233
8280,571148
8282,568472
8284,566555
8287,566125
8289,565449
8291,563659
8293,563588
8295,562113
8297,562099
8299,561714
8302,560318
8304,559369
8306,559702
8308,559615
8310,558423
8312,558904
8315,557923
8317,558422
8320,558388
8322,557405
8324,558107
8326,557843
8329,557818
8331,557020
8333,557766
8335,556975
8337,557658
8339,557583
8341,556932
8344,557711
8346,557732
8348,557607
8350,557039
8352,557880
8354,557223
8357,558023
8359,557902
8361,557436
8364,558330
8366,557698
8368,558348
8371,557943
8373,558922
8375,558302
8377,559110
8379,558855
8381,558614
8383,559607
8386,559056
8388,559573
8390,559399
8392,560403
8394,559809
8396,560770
8399,560407
8401,560264
8403,561289
8406,560762
8408,561726
8410,561332
8413,562444
8415,561968
8417,562887
8419,562492
8421,562659
8423,563673
8425,563190
8428,564195
8430,563967
8432,565007
8434,564544
8436,565568
8438,565146
8441,565466
8443,566448
8445,565954
8448,566941
8450,566582
8452,567964
8455,567411
8457,568426
8459,567909
8461,568433
8463,569282
8465,568733
8467,569817
8470,569269
8472,570669
8474,570111
8476,571119
8478,570594
8480,571190
8483,571928
8485,571360
8487,572330
8489,571802
8492,572440
8494,572528
8497,573420
8499,572874
8501,573502
8503,574151
8505,573488
8507,574410
8509,573814
8512,574490
8514,574447
8516,575332
8518,574736
8520,575449
8522,575950
8525,575225
8527,576134
8529,575474
8531,576282
8534,576806
8536,576858
8539,576225
8541,576960
8543,577464
8545,576672
8547,577568
8549,576981
8552,577788
8554,578182
8556,578340
8558,577679
8560,578551
8562,578935
8564,578159
8567,579056
8569,578412
8571,579290
8573,579592
8576,578927
8578,579260
8581,580135
8583,580419
8585,579814
8587,580794
8589,580180
8591,581069
8594,581194
8596,580708
8598,581115
8600,582073
8602,582186
8604,581780
8606,582726
8609,582195
8611,583096
8613,583131
8615,582771
8617,583781
8620,584197
8623,584093
8625,583789
8627,584859
8629,584297
8631,585244
8633,585194
8636,584908
8638,586043
8640,586472
8642,586262
8644,586069
8646,587226
8648,586683
8651,587669
8653,587350
8655,587267
8657,588380
8659,587856
8662,588464
8665,588506
8667,589584
8669,589057
8671,590032
8673,589639
8675,589708
8678,590711
8680,590246
8682,590810
8684,590903
8686,591967
8688,591389
8690,592397
8693,591911
8695,592189
8697,593101
8699,592472
8701,593521
8704,593375
8707,594230
8709,593638
8711,594669
8713,594103
8715,594543
8717,595373
8720,594789
8722,595759
8724,595686
8726,596527
8728,595888
8730,596860
8732,596314
8735,596882
8737,597606
8739,596922
8741,597923
8743,597317
8745,598703
8749,598057
8751,598979
8753,598463
8755,599084
8757,599757
8759,599105
8762,600065
8764,599522
8766,600821
8768,600137
8770,601149
8772,600544
8774,601306
8777,601852
8779,601169
8781,602156
8783,601511
8785,602303
8787,602158
8791,603102
8793,602498
8795,603256
8797,603841
8799,603092
8801,604043
8804,603427
8806,604291
8808,604026
8810,605022
8812,604435
8814,605306
8816,605758
8819,605087
8821,606037
8823,605420
8825,606307
8827,606684
8829,607002
8833,606361
8835,607235
8837,607514
8839,606794
8841,607722
8843,607098
8846,607983
8848,608156
8850,607600
8852,607940
8854,608645
8856,608645
8858,607909
8861,608763
8863,607925
8865,608599
8867,608318
8869,607595
8871,607487
8875,608105
8877,607566
8879,606669
8881,606995
8883,605602
8885,605583
8888,604317
8890,602862
8892,602542
8894,600010
8896,598240
8898,596378
8900,595750
8903,593477
8905,592674
8907,590652
8909,588709
8911,588021
8913,584873
8916,582747
8919,580936
8921,580213
8923,578057
8925,577287
8927,575264
8930,573741
8932,573242
8934,571231
8936,569055
8938,567945
8940,567773
8943,566077
8945,566106
8947,564696
8949,564064
8951,564177
8953,562821
8955,562042
8958,561706
8961,562028
8963,560961
8965,561377
8967,560462
8969,560476
8972,560920
8974,559929
8976,560597
8978,559987
8980,560521
8982,559687
8985,560368
8987,559618
8989,559916
8991,560489
8993,559656
8995,560380
8997,560064
9000,560628
9003,559879
9005,560699
9007,559985
9009,560516
9011,561080
9014,560281
9016,561095
9018,560476
9020,561595
9022,560914
9024,561741
9027,561072
9029,561701
9031,562189
9033,561405
9035,562235
9037,561641
9039,562855
9042,562178
9044,563007
9047,562474
9049,563269
9051,563789
9053,563090
9056,564014
9058,563457
9060,564387
9062,564288
9064,565280
9066,564809
9069,565730
9071,566246
9073,565679
9075,566704
9077,566222
9079,567195
9081,567140
9084,568199
9086,567748
9089,568742
9091,569124
9093,568699
9095,569792
9098,569345
9100,570293
9102,570649
9104,571374
9106,570915
9108,571923
9111,572055
9113,571772
9115,572895
9117,572412
9119,573428
9121,573534
9123,574406
9126,573933
9128,575019
9131,574956
9133,574710
9135,575831
9137,575345
9140,576383
9142,576265
9144,576039
9146,576637
9148,577613
9150,577432
9153,577216
9155,578308
9157,577753
9159,578723
9161,578390
9163,578297
9165,578808
9168,579758
9170,579360
9172,579282
9175,580361
9177,579779
9179,580734
9182,580317
9184,580293
9186,581376
9188,581685
9190,581210
9192,581256
9195,582232
9197,581619
9199,582567
9201,581982
9203,582143
9205,583079
9207,583354
9210,582772
9212,583061
9214,583861
9217,583199
9219,584152
9221,583565
9224,583865
9226,584650
9228,583972
9230,584263
9232,584636
9234,585397
9237,584759
9239,585684
9241,585030
9243,585534
9245,586208
9247,585488
9249,585840
9252,586406
9254,587099
9256,586401
9259,587292
9261,586699
9263,587299
9266,587930
9268,587197
9270,588219
9272,588285
9274,588879
9276,588197
9279,589168
9281,588568
9283,589304
9285,589878
9287,589194
9289,590191
9292,590384
9294,590978
9296,590275
9298,591252
9300,590678
9303,591529
9305,592080
9308,591391
9310,592399
9312,591849
9314,593342
9316,592571
9318,593591
9321,593013
9323,593982
9325,594501
9327,593832
9329,594844
9331,594276
9334,595686
9336,595047
9338,596034
9340,595521
9342,596429
9345,596798
9347,596170
9350,597156
9352,596617
9354,597615
9356,597354
9358,598382
9360,597821
9363,598789
9365,598947
9367,598514
9369,599544
9371,598899
9373,599926
9376,599985
9378,600585
9380,600033
9382,601030
9384,600945
9387,600674
9389,601798
9392,601159
9394,602122
9396,602058
9398,602853
9400,602231
9402,603238
9405,603008
9407,602778
9409,603854
9411,603287
9413,604210
9415,603982
9418,603764
9420,604298
9422,605276
9424,604935
9426,604812
9428,605883
9431,605247
9434,606232
9436,605756
9438,605739
9440,606132
9442,607107
9444,606636
9447,606709
9449,607694
9451,607100
9453,608014
9455,607512
9457,607684
9460,608600
9462,608941
9464,608399
9466,608670
9468,609594
9470,608886
9473,609805
9476,609192
9478,609512
9480,610323
9482,610681
9484,610159
9486,610554
9489,611402
9491,610741
9493,611718
9495,611043
9497,611504
9499,612282
9502,611568
9504,611855
9506,612364
9508,613040
9510,612278
9512,613224
9515,612564
9518,613073
9520,613692
9522,612800
9524,612922
9526,613543
9528,614050
9531,613197
9533,614087
9535,613331
9537,613905
9539,614432
9541,613466
9544,614365
9546,614076
9548,614506
9550,613439
9552,614161
9554,613285
9556,613790
9560,614042
9562,612941
9564,613598
9566,613142
9568,613266
9570,611887
9573,612159
9575,610590
9577,610403
9579,609671
9581,607585
9583,607087
9586,604918
9588,602911
9590,600483
9592,599719
9594,597206
9596,596286
9598,594716
9602,592182
9604,591298
9606,588798
9608,586190
9610,583794
9612,582958
9615,580506
9617,579610
9619,578031
9621,575874
9623,575272
9625,573140
9628,572594
9630,569385
9632,569162
9634,567404
9636,567191
9638,566073
9640,564827
9644,564998
9646,563578
9648,563736
9650,561984
9652,562427
9654,561296
9657,561726
9659,561036
9661,560357
9663,560984
9665,560067
9667,560685
9670,559987
9672,560371
9674,559465
9676,560184
9678,559629
9680,559317
9683,560196
9686,559412
9688,560140
9690,559587
9692,560293
9694,559565
9696,560388
9699,559822
9701,559718
9703,560668
9705,559953
9707,560866
9709,560319
9712,560380
9714,560620
9716,561563
9718,561006
9720,561271
9722,562146
9725,561599
9728,562594
9730,562010
9732,562454
9734,562747
9736,563767
9738,563260
9741,563828
9743,564806
9745,564217
9747,565328
9749,564854
9751,565471
9754,566387
9756,566935
9758,566430
9760,567103
9762,567990
9764,567474
9767,568579
9769,568162
9772,568897
9774,569726
9776,570361
9778,569866
9780,570676
9783,571447
9785,570851
9787,572035
9789,571560
9791,572491
9793,573286
9796,572687
9798,573373
9800,574265
9802,574995
9804,574399
9806,575528
9809,575011
9811,575961
9814,576692
9816,576014
9818,576605
9820,577577
9822,578220
9825,577503
9827,578564
9829,578035
9831,578947
9833,579476
9835,578805
9838,579770
9840,580197
9842,580615
9844,580000
9846,581001
9848,580413
9851,581363
9853,581718
9856,581065
9858,582051
9860,582430
9862,582686
9864,582082
9867,583067
9869,582479
9871,583392
9873,583474
9875,582943
9877,584004
9880,583344
9882,584300
9884,583834
9886,584868
9888,584188
9890,585132
9893,585007
9895,584596
9897,585577
9900,584938
9902,585620
9904,585241
9906,586307
9909,585582
9911,586465
9913,586178
9915,585929
9917,586954
9919,586314
9922,587272
9924,586640
9926,587649
9928,587039
9930,587942
9932,587535
9935,587344
9937,588350
9939,587656
9942,588580
9944,588112
9946,589055
9948,588398
9951,589348
9953,588854
9955,588874
9957,589868
9959,589230
9961,590201
9964,589680
9966,590778
9968,590129
9970,591080
9972,590518
9974,590838
9977,591793
9979,591126
9981,592103
9984,591592
9986,591877
9988,592156
9990,593148
9993,592563
9995,593019
9997,593831
9999,593213
10001,594175
10004,593580
10006,594909
10008,594240
10011,595240
10013,594640
10015,595208
10018,595279
10020,596344
10022,595734
10025,596378
10028,597130
10030,597467
10032,596883
10035,597579
10037,598226
10039,597497
10042,598546
10044,598754
10046,599333
10049,598624
10051,599673
10053,599023
10056,600451
10058,599754
10060,600725
10063,600143
10065,601049
10067,600880
10071,601863
10073,601286
10075,602099
10078,602716
10080,601893
10082,602365
10085,603252
10087,603746
10089,603018
10092,603975
10094,604308
10096,604790
10099,604017
10101,605013
10103,604402
10106,605728
10108,605100
10110,606117
10114,605463
10116,606401
10118,606081
10120,607104
10123,606505
10125,607473
10127,607634
10130,607121
10132,607557
10134,608494
10137,608593
10139,608133
10141,609134
10144,609515
10146,609472
10148,609065
10151,610108
10153,609516
10156,610363
10159,610040
10161,611088
10163,610514
10166,611472
10168,610929
10170,612033
10173,611376
10175,612305
10177,612054
10180,611795
10182,612203
10184,613160
10187,612668
10189,612505
10191,613517
10194,613721
10196,613193
10199,612997
10202,613964
10204,613159
10206,613385
10208,613273
10211,614132
10213,613309
10215,614085
10218,613086
10220,613854
10222,612862
10225,613478
10227,612478
10229,612093
10232,610728
10234,610690
10236,608895
10240,607959
10242,607443
10244,604750
10247,602450
10249,601168
10251,600244
10254,597752
10256,594450
10258,593066
10261,591927
10263,589389
10265,588543
10268,584825
10270,583803
10272,581308
10275,580629
10277,578336
10279,577322
10283,574192
10285,573685
10287,571690
10290,570968
10292,570386
10294,568338
10296,566727
10299,566507
10301,566193
10303,564656
10306,563623
10308,563760
10310,563794
10313,562586
10315,563054
10317,562359
10320,562493
10322,561409
10324,562000
10328,561088
10330,561602
10332,560831
10335,561505
10337,560727
10339,561358
10342,561718
10344,561568
10346,560789
10349,561540
10351,561847
10353,561017
10356,561047
10358,561809
10360,562085
10363,561319
10365,562199
10368,561545
10371,562522
10373,561872
10375,562780
10378,562171
10380,562935
10382,562558
10384,563509
10387,562861
10389,563793
10391,563893
10394,564423
10396,563861
10398,564802
10401,564791
10403,564469
10405,565010
10408,565968
10411,565850
10413,565606
10416,566704
10418,566169
10420,567101
10423,566916
10425,568085
10427,567570
10430,568633
10432,568321
10434,569463
10437,568993
10439,570047
10441,569799
10444,570916
10446,570446
10448,571471
10451,571154
10454,571170
10456,571761
10459,572781
10461,572409
10463,572442
10466,573541
10468,572956
10470,573515
10472,573678
10475,574666
10477,574110
10479,575062
10482,574744
10484,575672
10486,575002
10489,575953
10491,575353
10493,576446
10497,575760
10499,576664
10501,576073
10504,576384
10506,576374
10508,577178
10511,576500
10513,576825
10515,577461
10518,576637
10520,576751
10522,577134
10525,577678
10527,576897
10529,577681
10532,577362
10534,577889
10536,577044
10540,577789
10542,577055
10544,578037
10547,577137
10549,577914
10551,577154
10554,577705
10556,577310
10558,578109
10560,577370
10563,577994
10565,578397
10567,577539
10570,577686
10572,578377
10574,578807
10577,578027
10579,578852
10582,578966
10585,579344
10587,578572
10589,579456
10592,578834
10594,580017
10596,579290
10599,580162
10601,579548
10603,580334
10606,580090
10608,581032
10610,580364
10613,581243
10615,581626
10617,581013
10620,581501
10622,582499
10625,582873
10628,582311
10630,583398
10632,583849
10635,584098
10637,583692
10639,584787
10642,584324
10644,585485
10646,585108
10648,586189
10651,585745
10653,586706
10655,586838
10658,587667
10660,587159
10662,588189
10665,588257
10668,588005
10670,588649
10673,589682
10675,589586
10677,589468
10680,590606
10682,591171
10684,591014
10687,590882
10689,592046
10691,591651
10694,592560
10696,592530
10698,593674
10701,593181
10703,594266
10705,593997
10708,595210
10711,594773
10713,595846
10716,595551
10718,595701
10720,596378
10723,597480
10725,597132
10727,597341
10729,598482
10732,599166
10734,598820
10736,599096
10739,600190
10741,599723
10743,600400
10746,600818
10748,601779
10750,601288
10754,602343
10756,601909
10758,603301
10761,602710
10763,603802
10765,603278
10768,603828
10770,604100
10772,605104
10775,604613
10777,605228
10779,605969
10782,606420
10784,605891
10786,606557
10789,607311
10791,606670
10793,607167
10797,607909
10799,608644
10801,608041
10804,609007
10806,608579
10808,610022
10811,609373
10813,610372
10815,609920
10817,610725
10820,610685
10822,611677
10824,611125
10827,612005
10829,612627
10831,612891
10834,612374
10836,613258
10839,613795
10842,613110
10844,613537
10846,614423
10849,614952
10851,614201
10853,615112
10856,614527
10858,615837
10860,615065
10863,615970
10865,615304
10867,616163
10870,615688
10872,616558
10874,615840
10877,616665
10880,616794
10882,616902
10885,616161
10887,616896
10889,616901
10892,616089
10894,616837
10896,616561
10899,616326
10901,615418
10903,615891
10905,614585
10908,613699
10910,612161
10912,611874
10915,609930
10917,609411
10919,605693
10923,605070
10925,602767
10927,601857
10930,599810
10932,596770
10934,594287
10937,593334
10939,591213
10941,589107
10944,588238
10946,585006
10948,582916
10951,581041
10953,580429
10955,578203
10958,575667
10960,574145
10962,573764
10966,571840
10968,571496
10970,568818
10973,568759
10975,567215
10977,567213
10980,565943
10982,565483
10984,564285
10987,564640
10989,563579
10991,563225
10993,563610
10996,563103
10998,562195
11000,562154
11003,562687
11005,561740
11008,561660
11011,561810
11013,562380
11015,561606
11018,562339
11020,561911
11022,562448
11025,561796
11027,562552
11029,561966
11032,562868
11034,562255
11036,563036
11039,562384
11041,562851
11043,563503
11046,563592
11048,563008
11051,563520
11054,564060
11056,563342
11058,563600
11061,564294
11063,564859
11065,564134
11068,564977
11070,565096
11072,565688
11075,564987
11077,565874
11079,565354
11081,566687
11084,566051
11086,567000
11088,566498
11091,567392
11094,567953
11096,568309
11099,567844
11101,568765
11103,569285
11106,568741
11108,569282
11110,570262
11113,570789
11115,570281
11117,571320
11120,571917
11122,572387
11124,571926
11127,572986
11129,572657
11131,574076
11134,573659
11137,574737
11139,574306
11142,575325
11144,575635
11146,576329
11149,575913
11151,576952
11153,577209
11156,576909
11158,577532
11160,578565
11163,578764
11165,578422
11167,579491
11169,580133
11172,580116
11174,579886
11176,580991
11180,580547
11182,581509
11184,581232
11187,582263
11189,581770
11191,582708
11194,582610
11196,583466
11198,582924
11201,583802
11203,583533
11205,583359
11208,583819
11210,584715
11212,584328
11215,584198
11217,585216
11219,585540
11223,585096
11225,585008
11227,585970
11230,585388
11232,586326
11234,585827
11237,586793
11239,586185
11241,587064
11244,586537
11246,587668
11248,587093
11250,588035
11253,587447
11255,587759
11257,587993
11260,588900
11262,588377
11265,588733
11268,589567
11270,589941
11272,589447
11275,589863
11277,590672
11279,590059
11282,591027
11284,591007
11286,591753
11289,591125
11291,592054
11293,591526
11296,592851
11298,592220
11300,593217
11303,592732
11305,593323
11308,593419
11311,594417
11313,593820
11315,594570
11318,595325
11320,595636
11322,595136
11325,595912
11327,596551
11329,595935
11332,596962
11334,597337
11336,597870
11338,597276
11341,598324
11343,597802
11345,599345
11348,598714
11351,599707
11353,599246
11356,600099
11358,600118
11360,601094
11363,600644
11365,601575
11367,602156
11370,602541
11372,602079
11374,603030
11377,603459
11379,602906
11381,603928
11384,604418
11386,604862
11388,604309
11392,605385
11394,604879
11396,606131
11399,605674
11401,606756
11403,606317
11406,607259
11408,607052
11410,608111
11413,607552
11415,608478
11417,608591
11420,608177
11422,608755
11424,609707
11426,609765
11429,609461
11431,610553
11433,611083
11437,610998
11439,610725
11441,611863
11444,611300
11446,612123
11448,611968
11451,613002
11453,612510
11455,613488
11458,613140
11460,614203
11462,613679
11465,614723
11467,614391
11469,614286
11472,614820
11474,615796
11476,615452
11480,615408
11482,616516
11484,616974
11487,616525
11489,616623
11491,617656
11494,617087
11496,617561
11498,617752
11501,618728
11503,618216
11505,619200
11508,618908
11510,619795
11512,619210
11514,620137
11517,619632
11520,620031
11522,620277
11525,621253
11527,620683
11529,621032
11532,621797
11534,622041
11536,621407
11539,621898
11541,622664
11543,622013
11546,622298
11548,622698
11550,623248
11553,622488
11555,623228
11557,622907
11560,623313
11563,622470
11565,623178
11568,622520
11570,622988
11572,622564
11575,623302
11577,622483
11579,622936
11582,623150
11584,622373
11586,621099
11589,620922
11591,620451
11593,618529
11596,615912
11598,615059
11600,613751
11602,611128
11606,610022
11608,605982
11610,604264
11613,601280
11615,599906
11617,597058
11620,595587
11622,590840
11624,589483
11627,586711
11629,585391
11631,583689
11634,579817
11636,577382
11638,576306
11641,574812
11643,572524
11645,569779
11649,569191
11651,568157
11653,566409
11656,566220
11658,564578
11660,563881
11663,562667
11665,562906
11667,561758
11670,561999
11672,560599
11674,561139
11677,560217
11679,560701
11681,560322
11684,560294
11686,559507
11688,560134
11691,559794
11694,559288
11696,559342
11698,560064
11701,559670
11703,559330
11705,560108
11708,559465
11710,559876
11712,559629
11715,560486
11717,559896
11719,560704
11722,560284
11724,561175
11726,560727
11729,561641
11731,561320
11734,562283
11737,561793
11739,562727
11741,562280
11744,562330
11746,562718
11748,563615
11751,563199
11753,563320
11755,564267
11758,563782
11760,564270
11762,564537
11765,565447
11767,564956
11769,565922
11772,565869
11774,566656
11777,566152
11779,567016
11782,566625
11784,567818
11786,567346
11789,568284
11791,567823
11793,568382
11796,568690
11798,569629
11800,569246
11803,569834
11805,570604
11807,570119
11810,570715
11812,571427
11814,572130
11817,571672
11820,572663
11822,573049
11825,573764
11827,573318
11829,574201
11832,573855
11834,575171
11836,574651
11839,575524
11841,575047
11843,575744
11846,575632
11848,576481
11850,575988
11853,576666
11855,577081
11857,576409
11859,576587
11863,577219
11865,577629
11867,576902
11870,577644
11872,577640
11874,577928
11877,577170
11879,577800
11881,577153
11884,578041
11886,577251
11888,577909
11891,577215
11893,577826
11895,577145
11898,577834
11900,577150
11902,577743
11906,577774
11908,577042
11910,576937
11913,577531
11915,577474
11917,576844
11920,577494
11922,577409
11924,577299
11927,576723
11929,577395
11931,576689
11934,577193
11936,576655
11938,577408
11941,576775
11943,577467
11945,577197
11948,577617
11951,577003
11953,577710
11955,577383
11958,577106
11960,577357
11962,578122
11965,577835
11967,577575
11969,578462
11972,578681
11983,579348
11983,578975
11985,578975
11987,578949
11990,579901
11992,579411
11994,580202
11996,579823
11998,579855
12000,580787
12001,580361
12003,581156
12005,580744
12007,580904
12009,581831
12011,581376
12013,582311
12015,581945
12017,582201
12019,583064
12022,583601
12024,583188
12026,583626
12029,584438
12032,584010
12034,584528
12036,585100
12039,585882
12041,585436
12043,586388
12046,586000
12048,587278
12050,586862
12053,587843
12055,587524
12057,588095
12060,588444
12062,589429
12064,589137
12067,589824
12069,590526
12071,591168
12075,590843
12077,591579
12079,592304
12082,591860
12084,592587
12086,593407
12089,594092
12091,593755
12093,594717
12096,594361
12098,595951
12100,595517
12103,596535
12105,596203
12107,597114
12110,597309
12112,598367
12114,598060
12118,598996
12120,599635
12122,600186
12124,599859
12127,600807
12129,601414
12131,600922
12134,601642
12136,602562
12138,603096
12141,602661
12143,603727
12145,603339
12148,604712
12150,604276
12152,605300
12155,604927
12157,605909
12160,605944
12163,606936
12165,606580
12167,607520
12170,607794
12172,608479
12174,608086
12177,609022
12179,609240
12181,608973
12184,609624
12186,610600
12188,610696
12191,610502
12193,611608
12195,611178
12198,612161
12200,612018
12203,613093
12206,612746
12208,613679
12210,613586
12212,614691
12215,614278
12217,615271
12219,615223
12222,616224
12224,615827
12226,616793
12229,616645
12231,616632
12233,617713
12236,618369
12238,618167
12240,618214
12243,619353
12246,618949
12248,619439
12251,619402
12253,620276
12255,619684
12258,620466
12260,619869
12262,620649
12265,619988
12267,620772
12269,620228
12272,620979
12274,620133
12276,620619
12279,619688
12281,619247
12283,619256
12286,617498
12289,615741
12291,614744
12294,613948
12296,611728
12298,608524
12300,606987
12303,605695
12305,603083
12307,601800
12310,597461
12312,595926
12314,593222
12317,591936
12319,589292
12321,586269
12324,583691
12326,582601
12328,580198
12332,578841
12334,577710
12336,574674
12339,572628
12341,571753
12343,570957
12346,569112
12348,567080
12350,566716
12353,566367
12355,564908
12357,564980
12360,563929
12362,563823
12364,562688
12367,563008
12369,562089
12371,562551
12375,561530
12377,562065
12379,561314
12382,561806
12384,561999
12386,561818
12388,561123
12391,561778
12393,562000
12395,561241
12398,561361
12400,562023
12402,562239
12405,561589
12407,562376
12409,562553
12412,562759
12414,562182
12417,563009
12420,562485
12422,563404
12424,562985
12427,563845
12429,563367
12431,564197
12434,564287
12436,564898
12438,564398
12441,565359
12443,565439
12445,565155
12448,565730
12450,566570
12452,566647
12455,566470
12457,567474
12460,568174
12463,568137
12465,568104
12467,569233
12470,568925
12472,569972
12474,569984
12476,571119
12479,570905
12481,571973
12483,571926
12486,573241
12488,573071
12490,574198
12493,574141
12495,574380
12497,575343
12500,576502
12503,576384
12505,576688
12508,577876
12510,578749
12512,578620
12515,578978
12517,580112
12519,579876
12522,581026
12524,581268
12526,582382
12529,582117
12531,583240
12533,582999
12536,584505
12538,584214
12540,585326
12544,585065
12546,585634
12548,586227
12551,587243
12553,586961
12555,587592
12557,588473
12560,589136
12562,588814
12564,589460
12567,590300
12569,589922
12571,590914
12574,591241
12576,592081
12578,591553
12581,592490
12583,592127
12585,593611
12589,593139
12591,594153
12593,593754
12596,594509
12598,594691
12600,595605
12603,595208
12605,596000
12607,596621
12610,597034
12612,596551
12614,597339
12617,597928
12619,597355
12621,598270
12624,598624
12626,599142
12628,598476
12632,599411
12634,598945
12636,600224
12639,599614
12641,600497
12643,600048
12645,600815
12648,600670
12650,601541
12652,601069
12655,601921
12657,602320
12659,602670
12662,602124
12664,602960
12666,603282
12669,602750
12672,603678
12674,604098
12677,604290
12679,603830
12681,604804
12684,604327
12686,605344
12688,604991
12691,605948
12693,605477
12695,606364
12698,606136
12700,607167
12702,606748
12705,607708
12707,607738
12709,608509
12712,608117
12715,609015
12717,608998
12720,608830
12722,609888
12724,610449
12727,610340
12729,610260
12731,611332
12734,610876
12736,611743
12738,611677
12740,612760
12743,612377
12745,613375
12747,613120
12750,614179
12752,613774
12754,614771
12758,614476
12760,614577
12762,615133
12765,616183
12767,615773
12769,615983
12772,616983
12774,617521
12776,617131
12779,617409
12781,618396
12783,617957
12786,618550
12788,618857
12790,619768
12793,619313
12795,620256
12797,620297
12801,621207
12803,620720
12805,621697
12808,621229
12810,621754
12812,622042
12815,623028
12817,622577
12819,623083
12821,623911
12824,624445
12826,623947
12828,624530
12831,625296
12833,624711
12835,625227
12838,625906
12840,626556
12843,626051
12846,626978
12848,627302
12850,627936
12853,627316
12855,628330
12857,627829
12860,628633
12862,628653
12864,629591
12867,629073
12869,629870
12871,630423
12874,630749
12876,630272
12878,631086
12881,631637
12883,630973
12886,631508
12889,632348
12891,632862
12893,632143
12896,633118
12898,633446
12900,633908
12903,633313
12905,634233
12907,633661
12909,634506
12912,634292
12914,635286
12916,634720
12919,635567
12921,635914
12923,636198
12926,635706
12929,636494
12931,636705
12934,636131
12936,636448
12938,637303
12941,637331
12943,636774
12945,637643
12948,637785
12950,637736
12952,637202
12955,638092
12957,637360
12959,638101
12962,637322
12964,638106
12966,637306
12969,637926
12972,637503
12974,637671
12977,636768
12979,637301
12981,636658
12984,635875
12986,634841
12988,634846
12991,633555
12993,632248
12995,631946
12997,630042
13000,627785
13002,626100
13004,625438
13007,623271
13009,622466
13011,618438
13015,617674
13017,615347
13019,614473
13022,612221
13024,609750
13026,607468
13029,606734
13031,604655
13033,603255
13036,600575
13038,600066
13040,598101
13043,596990
13045,596632
13047,594840
13050,592977
13052,592285
13054,592097
13058,590605
13060,590633
13062,588908
13065,588909
13067,587669
13069,587902
13072,586845
13074,586927
13076,585922
13078,586382
13081,585489
13083,585700
13085,585117
13088,585755
13090,585019
13092,585363
13095,585797
13097,585039
13100,585136
13103,585672
13105,586231
13107,585508
13110,586341
13112,586436
13114,587030
13117,586355
13119,587242
13121,586730
13124,588025
13126,587451
13128,588408
13131,587942
13133,588735
13135,588730
13138,589689
13140,589255
13143,590145
13146,590781
13148,590185
13150,590800
13153,591754
13155,592318
13157,591785
13160,592826
13162,593393
13164,594020
13166,593525
13169,594600
13171,594222
13173,595708
13176,595253
13178,596314
13180,595938
13184,596985
13186,597031
13188,598123
13191,597764
13193,598760
13195,599019
13198,598774
13200,599460
13202,600506
13205,600711
13207,600495
13209,601601
13212,602160
13214,602324
13216,602177
13219,603273
13221,602911
13223,603901
13227,603750
13229,604848
13231,604439
13234,605467
13236,605199
13238,606279
13241,605772
13243,606760
13245,606561
13248,606435
13250,607032
13252,607992
13254,607699
13257,607648
13259,608615
13261,609024
13264,608650
13266,608596
13268,609605
13272,609083
13274,609479
13276,609470
13279,610459
13281,609814
13283,610660
13286,610096
13288,611115
13290,610433
13293,611238
13295,610708
13297,610827
13300,610950
13302,611780
13304,611187
13307,611361
13309,612147
13312,612224
13315,611613
13317,611929
13319,612634
13322,611923
13324,612190
13326,612633
13329,613289
13331,612529
13333,613393
13336,612853
13338,614018
13340,613343
13342,614216
13345,613660
13347,614168
13349,614206
13352,615140
13355,614490
13357,615137
13360,615760
13362,615944
13364,615429
13367,616100
13369,616687
13371,615953
13374,616298
13376,617058
13378,617609
13381,616913
13383,617857
13385,617248
13388,618573
13390,617891
13392,618883
13395,618284
13398,619134
13400,618996
13403,619952
13405,619374
13407,620212
13410,620780
13412,621057
13414,620547
13417,621516
13419,621930
13421,621314
13424,621803
13426,622713
13428,623089
13430,622531
13433,623566
13435,623009
13437,624198
13441,623686
13443,624704
13445,624188
13448,625132
13450,624848
13452,625935
13455,625421
13457,626382
13459,626459
13462,627188
13464,626609
13466,627585
13469,627603
13471,627286
13473,627811
13476,628775
13478,628705
13480,628449
13484,629542
13486,628982
13488,629846
13491,629665
13493,630729
13495,630189
13498,631162
13500,630767
13502,631881
13505,631278
13507,632286
13509,631955
13512,632944
13514,632333
13516,633339
13518,632962
13521,632940
13523,634000
13526,634426
13529,633906
13531,633960
13533,634975
13536,634419
13538,634917
13540,634999
13543,636009
13545,635393
13547,636373
13550,636075
13552,637039
13554,636425
13557,637347
13559,636819
13561,638013
13564,637388
13566,638404
13569,637854
13572,638267
13574,639070
13576,639413
13579,638829
13581,639312
13583,640070
13586,639438
13588,639677
13590,640237
13593,640823
13595,640100
13597,640980
13600,640759
13602,641314
13604,640503
13606,641299
13609,640503
13612,641477
13614,640546
13617,641264
13619,640432
13621,640884
13624,641216
13626,640772
13628,639807
13631,639966
13633,639906
13635,638421
13638,636749
13640,636422
13642,635722
13645,633680
13647,633191
13649,630425
13652,629309
13655,626952
13657,626201
13660,623865
13662,621664
13664,619181
13667,618284
13669,615893
13671,614952
13674,613647
13676,610357
13678,608124
13681,607298
13683,606077
13685,603829
13687,601124
13690,600481
13692,599341
13694,597334
13698,596948
13700,594840
13702,593766
13705,592192
13707,592112
13709,590558
13712,589466
13714,588158
13716,588280
13719,586909
13721,586941
13723,586203
13726,585388
13728,584217
13730,584486
13733,583833
13735,583099
13737,582627
13741,583036
13743,582438
13745,581894
13748,582595
13750,582322
13752,581827
13755,581430
13757,582255
13759,581588
13762,581911
13764,581663
13766,582515
13769,581870
13771,582668
13773,582247
13775,582977
13778,582379
13780,583230
13783,582800
13786,582797
13788,583234
13790,584085
13793,583652
13795,583747
13797,584727
13800,585173
13802,584743
13804,584983
13807,585923
13809,585479
13811,586473
13814,586429
13816,587383
13818,586936
13821,588077
13824,587651
13826,589136
13829,588732
13831,589796
13833,589437
13836,590024
13838,590577
13840,591630
13843,591312
13845,592052
13847,592919
13850,593697
13852,593361
13854,594148
13857,594956
13859,594586
13861,595717
13863,596209
13867,596988
13869,596566
13871,597652
13874,597317
13876,598937
13878,598477
13881,599518
13883,599100
13885,599978
13888,600215
13890,601208
13892,600856
13895,601762
13897,602394
13899,602909
13902,602408
13904,603360
13906,603928
13910,603348
13912,604303
13914,604744
13917,605283
13919,604674
13921,605620
13924,605126
13926,606562
13928,605895
13931,606872
13933,606358
13935,607231
13938,607013
13940,608000
13942,607494
13945,608366
13947,608658
13949,608970
13952,608416
13955,609269
13957,609483
13959,609059
13962,610109
13964,610558
13966,610797
13969,610354
13971,611471
13973,610928
13976,611789
13978,611430
13980,612462
13983,611886
13985,612882
13987,612513
13990,613489
13992,613022
13995,614009
13998,613868
14000,614822
14002,614245
14005,615209
14007,615015
14009,614935
14012,615960
14014,616431
14016,616200
14019,616105
14021,617181
14023,616702
14026,617398
14028,617421
14030,618515
14033,618012
14035,619029
14038,618717
14040,619843
14043,619376
14045,620403
14047,620014
14050,620171
14052,620779
14054,621765
14057,621319
14059,621649
14061,622682
14064,623235
14066,622845
14068,623293
14071,624242
14073,623693
14075,624200
14078,624641
14081,625568
14083,625005
14086,626011
14088,626120
14090,626957
14093,626443
14095,627459
14097,627027
14100,627631
14102,627921
14104,628978
14107,628500
14109,629171
14111,629995
14114,630409
14116,629988
14118,630668
14121,631425
14124,630874
14126,631464
14128,632211
14131,632947
14133,632383
14135,633366
14138,633682
14140,634431
14142,633807
14145,634844
14147,634322
14149,635208
14152,635187
14154,636257
14156,635794
14159,636624
14161,637287
14163,637648
14167,637079
14169,638063
14171,638598
14174,637996
14176,638464
14178,639372
14181,639920
14183,639214
14185,640291
14188,640675
14190,641212
14192,640534
14195,641560
14197,641029
14199,641896
14202,641659
14204,642727
14206,642109
14210,643073
14212,643314
14214,643789
14216,643236
14219,644214
14221,644317
14223,643880
14226,644371
14228,645237
14230,645283
14233,644896
14235,645950
14237,646282
14240,646217
14242,645827
14244,646907
14247,646280
14249,647219
14252,646746
14255,647741
14257,647153
14259,648051
14262,647769
14264,648498
14266,647807
14269,648657
14271,648293
14273,648041
14276,648206
14278,648978
14280,648450
14283,648197
14285,649040
14287,648925
14290,648184
14292,647784
14295,648346
14297,647112
14300,647314
14302,644809
14304,644535
14307,642599
14309,642082
14311,639933
14314,637604
14316,635034
14318,634003
14321,631382
14323,629594
14325,625402
14328,624131
14330,621221
14332,619290
14336,617784
14338,614881
14340,610871
14343,609192
14345,607873
14347,605226
14350,604150
14352,600341
14354,599223
14357,596867
14359,596063
14361,593935
14364,592164
14366,590038
14368,589638
14371,587830
14373,587240
14375,585000
14379,584892
14381,583450
14383,583220
14385,582999
14388,581589
14390,580575
14392,580638
14395,580628
14397,579480
14399,579923
14402,579273
14404,579413
14406,578410
14409,579030
14411,578219
14413,579006
14416,578119
14418,578760
14420,578077
14424,578734
14426,578297
14428,579077
14431,578449
14433,579160
14435,579503
14438,578843
14440,579067
14442,579842
14445,580181
14447,579553
14449,580426
14452,580688
14454,581025
14456,580457
14459,581394
14461,580932
14464,582104
14467,581739
14469,582745
14471,582333
14473,583294
14476,583217
14478,584357
14480,583999
14483,585042
14485,585253
14487,585103
14490,585934
14492,587049
14494,587168
14497,587140
14499,588255
14501,589118
14504,589265
14507,589225
14509,590434
14512,590153
14514,591370
14516,591463
14519,592723
14521,592471
14523,593587
14526,593728
14528,594882
14530,594723
14533,595803
14535,595744
14537,595877
14540,596866
14542,597934
14544,597829
14547,598051
14550,599256
14552,600068
14555,599817
14557,600093
14559,601233
14561,600882
14564,601731
14566,602029
14568,603002
14571,602575
14573,603595
14575,603225
14578,604620
14580,604151
14582,605227
14585,604840
14587,605314
14589,605635
14593,606496
14595,605962
14597,606375
14600,607051
14602,607313
14604,606725
14607,607122
14609,607801
14611,607109
14614,607325
14616,607787
14618,608364
14621,607657
14623,608463
14625,607804
14628,608815
14630,608051
14632,608848
14636,608098
14638,608656
14640,608427
14643,609279
14645,608627
14647,609275
14649,609753
14652,609871
14654,609296
14656,610007
14659,610484
14661,609760
14663,610032
14666,610783
14668,611295
14670,610617
14673,611549
14675,610913
14678,612232
14681,611575
14683,612506
14685,611977
14688,612840
14690,612729
14692,613638
14695,613113
14697,614018
14699,614452
14702,614838
14704,614302
14706,615260
14709,615627
14711,615073
14713,615503
14716,616475
14718,616785
14721,616263
14724,617350
14726,616868
14728,618050
14731,617672
14733,618723
14735,618250
14737,619253
14740,619064
14742,620185
14744,619610
14747,620687
14749,620735
14751,621607
14754,621081
14756,622124
14758,622133
14761,621911
14764,622713
14766,623753
14769,623656
14771,623571
14773,624722
14776,624324
14778,625283
14780,625232
14783,626458
14785,625997
14787,627096
14790,626996
14792,628155
14794,627649
14797,628731
14799,628443
14801,629714
14804,629301
14807,630371
14809,629977
14812,630069
14814,630742
14816,631770
14819,631438
14821,631594
14823,632677
14825,632170
14828,632751
14830,633153
14832,634064
14835,633557
14837,634590
14839,634558
14842,635489
14844,634913
14846,635971
14850,635524
14852,636896
14854,636300
14857,637292
14859,636833
14861,637395
14864,638151
14866,638579
14868,638058
14871,638704
14873,639474
14875,638869
14878,639396
14880,640006
14882,640768
14885,640130
14887,641149
14889,641401
14893,642050
14895,641447
14897,642445
14900,641936
14902,643275
14904,642652
14906,643707
14909,643137
14911,643922
14913,644529
14916,644831
14918,644286
14920,645135
14923,645654
14925,644894
14927,645271
14930,646130
14932,646563
14935,645793
14938,646741
14940,646948
14942,647368
14945,646597
14947,647420
14949,646728
14952,647780
14954,646914
14956,647704
14959,646933
14961,647604
14963,647712
14966,647446
14968,646427
14970,646822
14973,646442
14976,645021
14978,643319
14981,642983
14983,641712
14985,639726
14988,639078
14990,635872
14992,633942
14994,631535
14997,630462
14999,627758
15001,624206
15004,621664
15006,620484
15008,617700
15011,616447
15013,614187
15015,610726
15019,608181
15021,607203
15023,605162
15026,603080
15028,600139
15030,599419
15033,597604
15035,596071
15037,595763
15040,593641
15042,592077
15044,590821
15047,590726
15049,589108
15051,587680
15054,586814
15056,587048
15058,585759
15062,586091
15064,584940
15066,584888
15069,583898
15071,584460
15073,583642
15076,583428
15078,583290
15080,584088
15082,583360
15085,583555
15087,584374
15089,584565
15092,584058
15094,584416
15096,585187
15099,584644
15101,585599
15104,585628
15107,586553
15109,586042
15111,587129
15114,586737
15116,588195
15118,587715
15121,588861
15123,588393
15125,589140
15128,589567
15130,590737
15132,590350
15135,591137
15137,591976
15139,592650
15142,592345
15144,593222
15147,594109
15150,593678
15152,594779
15154,595386
15157,596222
15159,595799
15161,597004
15164,596678
15166,598506
15168,598070
15170,599218
15173,598906
15175,599955
15177,600253
15180,601381
15182,601069
15184,602089
15187,602763
15190,603462
15192,603145
15195,604161
15197,604836
15199,604358
15202,605405
15204,606013
15206,606600
15209,606133
15211,607149
15213,606754
15216,608250
15218,607789
15220,608773
15223,608356
15225,609333
15227,609362
15230,610370
15233,609993
15235,610991
15238,611303
15240,612074
15242,611695
15245,612753
15247,613013
15249,612775
15252,613867
15254,614443
15256,614581
15258,614328
15261,615441
15263,615008
15265,616055
15268,615811
15270,616865
15272,616406
15276,617343
15278,616989
15280,618041
15283,617584
15285,618418
15287,618231
15290,619098
15292,618500
15294,619382
15297,619082
15299,618943
15301,619838
15304,620139
15306,619718
15308,619661
15311,620597
15313,619998
15315,620456
15319,620448
15321,621339
15323,620810
15326,621647
15328,621336
15330,622205
15333,621668
15335,622489
15337,622047
15340,623088
15342,622544
15344,623348
15346,622871
15349,623281
15351,624000
15353,624341
15356,623899
15358,624299
15361,625063
15364,624467
15366,624925
15368,625385
15371,626114
15373,625583
15375,626508
15378,626618
15380,627307
15382,626776
15385,627687
15387,627205
15389,627781
15392,627912
15394,628798
15396,628386
15399,629060
15401,629759
15404,630148
15407,629756
15409,630553
15411,631122
15414,630639
15416,631188
15418,631941
15421,632583
15423,632034
15425,632941
15428,633280
15430,633941
15432,633295
15434,634240
15437,633757
15439,634567
15441,634529
15444,635475
15447,634967
15449,635817
15452,636315
15454,636680
15456,636222
15459,637065
15461,637626
15463,637059
15466,637630
15468,638568
15470,639024
15473,638492
15475,639497
15477,640058
15480,640409
15482,639906
15484,640990
15488,640503
15490,641427
15492,641319
15495,642305
15497,641820
15499,642780
15502,642903
15504,643517
15506,643039
15509,643962
15511,643928
15513,643625
15515,644226
15518,645180
15520,645146
15522,644934
15525,646050
15527,646586
15529,646547
15533,646430
15535,647565
15537,647184
15540,648175
15542,648085
15544,649233
15547,648867
15549,649863
15551,649750
15554,650923
15556,650515
15558,651447
15561,651156
15563,651140
15565,651790
15568,652680
15570,652345
15572,652336
15576,653240
15578,653581
15580,653076
15583,653154
15585,654040
15587,653436
15590,654332
15592,653895
15594,654668
15597,654088
15599,654887
15601,654355
15603,655317
15606,654696
15608,655524
15610,654929
15613,655213
15616,655166
15618,655905
15621,655240
15623,655475
15625,656020
15628,655204
15630,655090
15632,655351
15635,655682
15637,654683
15639,655084
15642,653733
15644,653482
15646,651927
15649,651689
15651,649980
15653,648445
15656,646387
15659,645745
15661,643561
15664,642450
15666,638875
15668,637852
15671,635465
15673,634225
15675,632848
15678,630281
15680,626855
15682,625716
15685,624381
15687,621954
15689,621049
15691,618022
15694,616831
15696,614711
15698,614015
15702,612023
15704,610431
15706,608534
15709,608170
15711,606452
15713,606057
15716,603805
15718,603682
15720,602195
15723,602137
15725,601613
15727,600318
15730,599291
15732,599457
15734,599195
15737,598204
15739,598579
15741,598143
15745,597953
15747,597217
15749,597806
15752,597061
15754,597400
15756,596840
15759,597524
15761,596869
15763,597508
15766,597022
15768,597797
15770,597263
15773,598025
15775,597934
15777,597597
15780,597969
15782,598777
15784,598615
15787,598497
15790,599488
15792,600094
15794,600060
15797,600039
15799,601181
15801,600901
15804,601823
15806,601924
15808,603015
15811,602705
15813,603787
15815,603779
15818,604919
15820,604723
15822,605728
15825,605559
15827,605737
15830,606629
15833,607716
15835,607612
15837,607898
15840,608982
15842,609858
15844,609655
15847,610046
15849,611112
15851,610922
15854,611698
15856,612181
15858,613197
15861,612859
15863,613876
15865,614188
15867,615112
15870,614809
15873,615822
15875,615484
15878,616072
15880,616616
15882,617638
15885,617297
15887,617952
15889,618764
15892,619379
15894,619083
15896,619801
15899,620591
15901,620159
15903,620874
15906,621570
15908,622289
15910,621852
15913,622850
15916,622450
15918,623861
15921,623407
15923,624377
15925,623963
15928,624683
15930,624804
15932,625707
15935,625333
15937,626029
15939,626660
15942,626925
15944,626481
15946,627208
15949,627727
15951,627150
15953,627478
15955,628232
15959,628694
15961,628060
15963,628951
15966,628440
15968,629610
15970,629085
15973,629915
15975,629441
15977,630182
15980,630045
15982,630886
15984,630453
15987,631272
15989,631553
15991,632003
15994,631585
15996,632390
15998,632511
16002,632157
16004,632616
16006,633430
16009,633585
16011,633230
16013,634147
16016,633665
16018,634602
16020,634247
16023,635225
16025,634702
16027,635596
16030,635275
16032,636232
16034,635715
16037,636588
16039,636487
16041,637328
16044,636936
16047,637854
16049,637747
16051,637715
16054,638416
16056,639327
16058,639199
16061,639210
16063,640274
16065,639949
16068,640682
16070,640640
16072,641759
16075,641315
16077,642240
16079,642029
16082,643038
16084,642607
16087,643525
16090,643257
16092,644373
16094,643951
16097,644868
16099,644533
16101,644767
16104,645243
16106,646163
16108,645745
16111,646168
16113,647032
16115,646584
16118,647108
16120,647576
16122,648394
16124,647912
16128,648860
16130,648866
16132,649607
16135,649092
16137,649905
16139,649510
16142,650632
16144,650052
16146,650886
16149,650365
16151,650888
16153,651464
16156,651647
16158,651046
16160,651541
16163,652054
16165,651283
16167,651451
16171,652022
16173,652438
16175,651881
16178,652663
16180,652805
16182,653311
16185,652685
16187,653470
16189,652936
16192,653967
16194,653247
16196,653971
16199,653437
16201,654052
16203,654449
16206,654593
16208,654027
16210,654751
16212,655185
16216,654656
16218,655123
16220,655865
16223,656320
16225,655705
16227,656644
16230,656974
16232,657429
16234,656797
16237,657625
16239,657102
16241,658115
16244,657596
16246,658425
16248,657926
16251,658663
16253,658890
16256,659239
16259,658704
16261,659488
16263,659520
16266,659001
16268,659269
16270,659943
16273,659905
16275,659454
16277,660228
16280,660303
16282,660115
16284,659647
16287,660442
16289,659756
16291,660172
16294,659708
16296,660446
16299,659739
16301,660268
16304,659734
16306,659344
16308,658108
16311,658169
16313,656916
16315,655696
16318,653650
16320,653077
16322,651292
16325,649660
16327,648927
16329,645902
16332,643749
16334,641940
16336,640971
16339,638600
16342,635212
16344,633429
16347,632421
16349,630057
16351,629032
16354,626846
16356,624339
16358,622195
16361,621459
16363,619473
16365,618286
16368,615721
16370,615172
16372,613524
16375,612609
16377,612214
16379,610348
16382,608927
16385,608443
16387,608315
16389,606975
16392,605963
16394,605789
16396,605847
16399,604807
16401,605149
16403,604201
16406,604570
16408,603667
16410,604189
16413,603457
16415,603825
16417,603409
16420,604134
16422,603514
16424,604012
16428,604515
16430,604634
16432,604156
16435,604760
16437,605288
16439,604763
16442,605668
16444,606008
16446,606584
16449,606106
16451,607015
16453,606613
16456,608075
16458,607631
16460,608598
16463,608292
16465,609129
16467,609392
16471,610401
16473,610130
16475,611062
16477,611658
16480,612318
16482,612036
16484,612960
16487,613606
16489,613258
16491,614262
16494,615024
16496,615594
16498,615307
16501,616410
16503,616129
16505,617647
16508,617421
16510,618535
16513,618338
16516,619303
16518,619428
16520,620458
16523,620165
16525,621216
16527,621467
16530,622361
16532,622053
16534,623050
16537,623175
16539,623051
16541,624151
16544,624911
16546,624991
16548,624956
16551,625999
16553,625687
16556,626566
16559,626535
16561,627471
16563,627128
16565,628004
16568,627705
16570,628713
16572,628348
16575,629236
16577,629003
16579,629948
16582,629555
16584,630368
16586,630152
16589,630128
16591,630975
16593,631420
16596,631025
16599,631081
16601,632030
16604,631537
16606,631967
16608,632089
16611,632930
16613,632345
16615,633127
16618,632777
16620,633518
16622,632989
16625,633721
16627,633215
16629,634242
16632,633677
16634,634544
16636,634055
16640,634440
16642,635105
16644,635431
16647,634983
16649,635420
16651,636143
16653,635588
16656,635980
16658,636474
16660,637117
16663,636530
16665,637379
16667,637497
16670,638092
16672,637476
16674,638328
16677,637845
16679,638461
16681,638435
16685,639310
16687,638797
16689,639481
16692,639985
16694,640315
16696,639849
16699,640572
16701,641051
16703,640412
16706,640823
16708,641570
16710,642046
16713,641434
16715,642263
16717,642575
16720,643034
16722,642440
16724,643280
16728,642740
16730,643538
16739,644591
16740,645010
16741,645010
16743,644410
16745,645266
16747,644740
16749,645603
16751,645914
16753,645421
16755,646291
16757,645762
16759,646659
16761,646917
16763,646412
16765,647335
16768,647675
16770,647860
16773,647440
16775,648386
16777,647904
16780,648770
16782,648443
16784,649447
16787,648904
16789,649785
16791,649718
16794,650382
16796,649924
16798,650730
16801,650650
16803,650397
16805,650829
16808,651723
16811,651539
16813,651358
16816,652302
16818,652711
16820,652478
16822,652382
16825,653359
16827,652802
16829,653707
16832,653348
16834,654349
16836,653831
16839,654779
16841,654439
16843,655425
16846,654855
16848,655799
16850,655444
16854,655466
16856,655928
16858,656786
16861,656404
16863,656538
16865,657407
16868,657777
16870,657270
16872,657496
16875,658359
16877,657817
16879,658623
16882,658468
16884,659223
16886,658683
16889,659477
16891,658932
16893,660000
16897,659367
16899,660126
16901,659556
16904,660000
16906,659882
16908,660611
16910,660015
16913,660343
16915,660858
16917,660811
16920,659995
16922,660362
16924,660704
16927,659837
16929,660359
16931,659402
16934,659269
16936,657813
16939,657684
16942,656047
16944,654597
16946,652581
16949,651882
16951,649675
16953,648640
16956,644913
16958,643854
16960,641341
16963,640066
16965,638479
16967,635783
16970,631867
16972,630533
16974,628940
16977,626296
16979,625098
16982,621562
16985,620138
16987,617721
16989,616792
16992,614580
16994,612402
16996,610276
16998,609577
17001,607658
17003,607146
17005,604422
17008,604083
17010,602503
17012,602173
17015,601433
17017,600032
17019,598634
17022,598601
17025,598018
17027,596905
17030,597217
17032,596288
17034,595833
17037,594979
17039,595417
17041,594600
17044,594581
17046,594014
17048,594559
17051,593781
17053,594417
17055,593633
17058,594407
17060,593733
17062,594402
17065,594117
17068,593795
17070,594139
17073,594868
17075,594635
17077,594425
17080,595304
17082,595711
17084,595500
17086,595486
17089,596441
17091,596087
17093,596806
17096,596856
17098,597911
17100,597555
17103,598599
17105,598608
17107,599754
17111,599437
17113,600492
17115,600337
17118,600660
17120,601551
17122,602668
17125,602513
17127,602966
17129,604029
17132,604938
17134,604809
17136,605384
17139,606523
17141,606275
17143,607301
17146,608012
17148,608997
17150,608774
17154,609903
17156,610494
17158,611431
17161,611184
17163,612308
17165,612119
17168,612914
17170,613578
17172,614721
17174,614543
17177,615345
17179,616252
17181,616989
17184,616741
17186,617566
17188,618382
17191,618034
17193,618885
17196,619679
17199,620484
17201,620060
17203,621145
17206,620808
17208,622291
17210,621909
17213,622914
17215,622594
17217,623436
17220,623569
17222,624539
17224,624123
17227,625035
17229,625598
17231,626030
17234,625667
17236,626580
17239,627100
17242,626638
17244,627237
17246,628110
17249,628606
17251,628074
17253,629023
17256,628603
17258,629937
17260,629414
17262,630348
17265,629949
17267,630807
17269,630669
17272,631596
17274,631131
17276,632015
17280,632212
17282,632780
17284,632389
17287,633209
17289,633331
17291,632939
17294,633387
17296,634171
17298,634262
17301,633980
17303,634936
17305,634497
17308,635388
17310,635176
17312,636177
17315,635708
17317,636623
17319,636331
17323,637298
17325,636866
17327,637802
17330,637634
17332,638565
17334,638191
17337,639114
17339,638848
17341,638846
17343,639428
17346,640339
17348,640100
17350,640146
17353,641115
17355,640721
17357,641338
17360,641420
17362,642433
17364,642051
17368,642957
17370,642793
17372,643867
17375,643384
17377,644352
17379,643947
17382,645168
17384,644661
17386,645608
17389,645261
17391,645637
17393,646046
17396,647010
17398,646547
17400,646981
17403,647876
17405,647348
17408,647925
17411,648441
17413,649228
17415,648724
17418,649718
17420,649870
17422,650597
17425,650095
17427,651030
17429,650524
17431,651908
17434,651292
17436,652258
17438,651732
17441,652402
17443,652427
17445,653379
17448,652941
17451,653627
17453,654287
17456,653707
17458,654105
17460,654893
17463,655433
17465,654847
17467,655825
17470,656132
17472,656653
17474,656138
17477,657003
17479,656557
17481,657900
17484,657341
17486,658155
17488,657734
17491,658536
17494,659090
17496,659401
17499,658855
17501,659731
17503,660185
17506,659545
17508,659909
17510,660784
17513,661164
17515,660552
17517,661467
17519,661732
17522,662061
17524,661494
17526,662377
17529,661825
17531,662835
17533,662376
17537,663260
17539,662632
17541,663496
17544,663539
17546,663924
17548,663289
17551,664062
17553,663930
17555,663461
17558,663656
17560,664407
17562,664068
17565,663532
17567,664300
17569,664213
17572,663833
17574,663295
17576,663992
17580,663160
17582,663068
17584,662454
17587,662947
17589,661739
17591,662002
17594,660943
17596,659916
17598,658337
17601,658126
17603,656604
17605,655240
17607,653029
17610,652582
17612,650799
17614,649340
17617,648876
17619,646299
17622,644421
17625,643041
17627,642597
17629,640587
17632,638235
17634,636958
17636,636570
17639,634657
17641,634271
17643,632550
17646,631424
17648,629799
17650,629660
17653,628141
17655,627581
17657,626026
17660,626144
17662,624831
17665,624578
17668,624654
17670,623698
17672,622621
17675,622608
17677,622819
17679,621815
17682,621334
17684,621543
17686,621864
17689,620947
17691,621589
17693,620894
17695,621676
17698,620856
17700,621606
17702,620963
17705,621496
17708,621205
17710,622039
17713,621474
17715,622094
17717,622616
17720,622778
17722,622238
17724,622990
17727,623456
17729,622804
17731,623731
17734,623961
17736,624531
17738,623930
17741,624790
17743,624286
17745,625677
17748,625139
17751,626127
17753,625640
17756,626582
17758,626559
17760,627503
17763,627047
17765,627969
17767,628466
17770,629047
17772,628604
17774,629619
17777,630009
17779,629538
17781,630563
17783,631145
17786,631427
17788,631007
17790,632074
17794,631656
17796,632885
17798,632541
17801,633619
17803,633236
17805,634183
17808,634116
17810,635168
17812,634796
17815,635799
17817,635863
17819,636752
17822,636355
17824,637344
17826,637337
17829,637167
17831,638230
17833,638715
17837,638594
17839,638482
17841,639524
17844,639054
17846,639794
17848,639722
17851,640713
17853,640241
17855,641120
17858,640912
17860,641884
17862,641399
17865,642301
17867,641926
17869,642843
17871,642338
17874,643196
17876,642825
17879,642849
17882,643759
17884,644045
17886,643514
17889,643620
17891,644464
17893,643866
17896,644155
17898,644402
17900,645148
17903,644531
17905,645391
17907,645181
17910,645874
17912,645272
17914,646063
17917,645517
17920,646509
17922,645856
17925,646746
17927,646166
17929,646556
17932,647249
17934,647449
17936,646909
17939,647290
17941,647900
17943,647244
17946,647540
17948,648063
17950,648649
17952,647919
17955,648782
17957,648837
17959,649354
17963,648692
17965,649478
17967,648995
17970,650212
17972,649504
17974,650343
17977,649775
17979,650444
17981,650970
17984,651182
17986,650526
17988,651315
17991,651831
17993,651116
17995,651544
17998,652335
18000,652743
18002,652085
18006,653008
18008,653240
18010,653735
18013,653093
18015,653964
18017,653389
18020,654198
18022,653945
18024,654844
18027,654250
18029,655121
18031,655414
18034,655690
18036,655150
18038,655989
18040,656185
18043,655621
18045,656030
18048,656829
18051,656906
18053,656418
18055,657320
18058,657646
18060,657631
18062,657235
18065,658242
18067,657661
18069,658584
18072,658215
18074,659229
18076,658682
18079,659570
18081,659429
18083,660184
18086,659638
18088,660504
18091,660277
18094,660101
18096,660566
18098,661459
18101,661193
18103,660995
18105,662049
18108,662350
18110,662028
18112,661880
18115,662828
18117,662288
18119,663157
18122,662680
18124,663645
18126,663121
18128,663988
18131,663496
18134,664489
18136,663955
18139,664816
18141,664365
18143,664601
18146,664932
18148,665763
18150,665239
18153,665517
18155,666333
18157,666693
18160,666100
18162,666464
18164,667236
18167,666601
18169,667506
18171,667402
18174,668055
18177,667423
18179,668316
18182,667713
18184,668869
18186,668218
18189,669119
18191,668550
18193,669021
18196,669028
18198,669922
18200,669346
18203,669921
18205,670548
18207,670665
18210,670068
18212,670677
18214,671140
18216,670442
18220,671232
18222,671212
18224,671675
18227,670911
18229,671693
18231,671048
18234,672023
18236,671216
18238,671932
18241,671243
18243,671791
18245,671240
18248,671943
18250,671150
18252,671702
18255,671945
18257,671014
18259,670718
18263,671223
18265,671292
18267,670246
18270,670620
18272,669664
18274,669332
18277,667834
18279,667812
18281,666277
18284,665223
18286,663417
18288,663135
18291,661218
18293,660671
18295,657602
18298,657116
18300,655140
18302,654591
18305,653264
18308,651422
18310,649155
18312,648693
18315,647430
18317,645742
18319,645449
18322,643493
18324,642356
18326,640958
18329,640908
18331,639394
18333,638407
18336,637360
18338,637491
18340,636331
18343,636499
18345,634867
18348,635316
18351,634290
18353,634735
18355,634060
18358,633551
18360,633291
18362,633845
18365,633173
18367,632771
18369,633442
18372,633398
18374,632855
18376,632641
18379,633498
18381,632865
18383,633214
18386,633212
18388,634105
18391,633590
18393,634498
18396,634046
18398,634975
18400,634411
18403,635249
18405,634756
18407,635080
18410,635305
18412,636239
18414,635757
18417,636111
18419,636940
18421,637353
18424,636817
18426,637230
18428,638036
18432,637462
18434,637881
18436,638420
18439,639140
18441,638600
18443,639498
18446,639591
18448,640294
18450,639713
18453,640611
18455,640055
18457,640687
18460,640708
18462,641700
18464,641138
18467,641773
18469,642445
18471,642696
18475,642138
18477,642840
18479,643462
18481,642787
18484,643175
18486,643908
18488,644478
18491,643766
18493,644673
18495,644908
18498,645472
18500,644749
18502,645633
18505,645052
18507,645808
18509,645552
18512,646467
18514,645809
18516,646615
18520,647063
18522,647168
18524,646526
18527,647357
18529,647774
18531,647040
18534,647276
18536,648034
18538,648275
18541,647557
18543,648404
18545,647651
18548,648518
18550,647838
18552,648625
18555,647943
18557,648654
18560,647907
18562,648693
18565,647910
18567,648627
18569,648502
18572,648602
18574,647866
18576,648563
18579,648287
18581,647785
18583,647883
18586,648576
18588,648234
18590,647787
18593,648589
18595,647825
18597,648134
18600,647681
18603,648477
18605,647727
18608,648483
18610,647654
18612,648489
18615,647820
18617,648614
18619,648116
18622,648881
18624,648200
18626,649085
18629,648615
18631,648419
18633,648740
18636,649623
18638,649082
18640,649002
18643,649947
18646,649299
18648,649678
18650,649763
18653,650683
18655,650139
18657,651058
18660,650699
18662,651603
18664,650977
18667,651941
18669,651395
18671,652676
18674,652088
18676,653022
18678,652432
18681,652806
18683,652999
18685,653927
18689,653397
18691,653958
18693,654790
18696,654220
18698,654675
18700,655259
18703,656085
18705,655486
18707,656416
18710,656477
18712,657146
18714,656493
18717,657506
18719,656918
18721,658272
18724,657593
18726,658584
18728,657961
18732,658772
18734,658714
18736,659623
18738,659025
18741,659738
18743,660321
18745,659565
18748,659870
18750,660703
18752,661250
18755,660616
18757,661653
18759,662098
18762,662673
18764,661958
18766,662941
18769,662411
18771,663857
18774,663105
18777,664085
18779,663520
18781,664474
18784,664912
18786,665205
18788,664554
18791,665449
18793,665866
18795,665117
18798,665371
18800,666223
18802,666523
18805,665839
18807,666793
18809,666997
18812,667119
18814,666575
18817,667544
18820,666870
18822,667814
18824,667321
18826,668297
18829,667622
18831,668586
18833,668527
18836,669088
18838,668518
18840,669421
18843,669262
18845,668904
18847,669361
18850,670250
18852,670016
18854,669722
18857,670733
18860,671086
18862,670776
18865,670556
18867,671649
18869,671019
18872,671546
18874,671437
18876,672427
18879,671820
18881,672723
18883,672256
18886,673190
18888,672498
18890,673411
18893,672887
18895,672863
18897,673201
18900,674040
18903,673435
18905,673412
18908,674364
18910,674470
18912,673759
18914,673869
18917,674647
18919,673841
18921,673948
18924,674126
18926,674829
18928,673959
18931,674725
18933,673903
18935,674686
18938,673746
18940,674448
18942,673522
18946,673716
18948,673115
18950,673690
18953,672622
18955,672754
18957,672992
18960,672100
18962,670831
18964,670666
18967,670631
18969,669076
18971,667572
18974,667184
18976,666774
18978,665023
18981,664827
18983,663076
18985,662110
18989,660200
18991,660030
18993,658300
18996,657942
18998,655629
19000,655597
19002,653954
19005,653772
19007,653401
19009,651810
19012,650414
19014,650510
19016,650241
19019,648785
19021,647780
19023,648027
19026,647945
19028,646609
19031,647053
19034,645927
19036,646351
19038,645208
19041,645785
19043,644819
19045,645399
19048,644496
19050,645270
19052,644440
19055,645114
19057,645165
19059,645110
19062,644226
19064,644914
19066,644878
19069,644109
19072,644891
19074,644822
19077,644720
19079,644094
19081,644960
19084,644248
19086,644937
19088,644479
19090,645434
19093,644767
19095,645608
19097,645016
19100,645946
19102,645323
19104,646105
19107,645889
19109,646470
19111,645819
19115,646700
19117,646430
19119,646146
19122,647165
19124,647495
19126,647158
19129,646972
19131,647987
19133,647373
19136,647957
19138,647857
19140,648963
19143,648333
19145,649305
19147,648823
19150,649885
19152,649307
19154,650321
19158,649826
19160,650955
19162,650418
19165,651375
19167,650812
19169,651066
19171,652047
19174,652428
19176,651829
19178,652224
19181,653043
19183,652431
19185,652763
19188,653175
19190,653938
19192,653264
19195,654223
19197,653971
19200,654739
19203,653981
19205,654905
19207,654251
19210,655381
19212,654637
19214,655511
19217,654799
19219,655313
19221,655944
19224,656019
19226,655327
19228,655876
19231,656398
19233,655554
19235,655683
19238,656213
19240,656714
19243,655910
19246,656713
19248,656619
19250,657054
19253,656187
19255,656977
19257,656265
19259,657312
19262,656426
19264,657209
19266,656492
19269,657205
19271,657605
19273,657565
19276,656815
19278,657575
19280,657969
19283,657073
19286,657172
19288,657976
19291,658234
19293,657490
19295,658353
19298,658368
19300,658634
19302,657824
19305,658703
19307,657998
19309,658821
19312,658298
19314,659207
19316,658490
19319,659296
19321,659367
19323,659655
19326,658938
19329,659828
19331,659783
19334,659237
19336,659442
19338,660252
19341,660173
19343,659732
19345,660583
19348,660794
19350,660618
19352,660223
19354,661129
19357,660535
19359,661419
19361,660854
19364,661811
19366,661234
19368,662098
19372,661814
19374,662595
19376,661995
19379,662876
19381,662555
19383,662412
19386,662764
19388,663727
19390,663340
19393,663236
19395,664250
19397,664638
19400,664198
19402,664154
19404,665208
19407,664576
19409,665523
19411,665162
19415,666147
19417,665525
19419,666495
19422,665979
19424,667107
19426,666457
19429,667468
19431,666904
19433,667172
19435,667406
19438,668373
19440,667759
19442,668158
19445,668990
19447,669254
19449,668636
19452,669040
19454,669795
19457,669130
19460,670061
19462,669897
19464,670676
19467,669977
19469,670894
19471,670244
19474,671466
19476,670765
19478,671703
19481,671070
19483,671661
19485,671610
19488,672545
19490,671888
19492,672537
19495,673127
19497,673259
19500,672667
19503,673318
19505,673909
19507,673147
19510,674029
19512,674079
19514,674636
19517,673818
19519,674712
19521,674038
19523,675231
19526,674478
19528,675382
19530,674661
19533,675485
19535,675134
19537,676021
19540,675272
19543,676112
19545,676509
19548,676596
19550,675902
19552,676712
19555,677015
19557,676212
19559,677058
19562,677135
19564,677296
19566,676609
19569,677507
19571,676769
19573,677638
19576,676860
19578,677725
19580,677019
19584,677765
19586,676968
19588,677802
19591,676968
19593,677662
19595,677379
19598,676707
19600,676636
19602,677257
19605,676883
19607,676161
19609,676909
19611,676420
19614,675693
19616,674822
19618,675215
19621,673889
19623,672847
19625,671657
19629,671704
19631,670065
19633,669782
19636,666834
19638,666582
19640,664676
19643,664245
19645,662504
19647,661035
19650,658794
19652,658412
19654,656697
19657,655405
19659,655207
19661,653252
19664,651708
19666,650662
19668,650664
19672,649070
19674,647761
19676,647092
19679,647212
19681,645859
19683,646117
19686,644656
19688,645033
19690,643872
19693,644354
19695,643294
19697,643174
19699,642451
19702,642991
19704,642057
19706,642132
19709,642605
19712,642310
19714,641501
19717,641775
19719,642347
19721,641509
19724,641552
19726,641942
19728,642448
19731,641658
19733,642493
19735,642303
19738,642877
19740,642113
19742,643030
19745,642341
19747,642981
19749,642772
19752,643620
19755,642993
19757,643689
19760,644264
19762,644456
19764,643850
19767,644626
19769,645123
19771,644465
19774,644747
19776,645599
19778,646158
19780,645410
19783,646337
19785,646634
19787,647160
19790,646471
19792,647404
19794,646922
19798,647821
19800,647613
19802,648613
19805,648024
19807,648987
19809,649497
19812,649869
19814,649293
19816,650257
19819,650638
19821,650109
19823,650559
19826,651438
19828,651696
19830,651220
19833,652283
19835,651693
19837,652815
19841,652414
19843,653401
19845,652898
19848,653883
19850,653451
19852,654511
19855,653954
19857,654878
19859,654822
19862,655488
19864,654885
19866,655820
19868,655672
19871,655359
19873,655725
19875,656595
19878,656315
19880,655995
19883,657014
19886,656360
19888,656868
19890,656584
19893,657569
19895,656900
19897,657719
19900,657071
19902,658038
19904,657398
19907,658180
19909,657677
19911,658491
19914,657772
19916,658593
19918,658033
19921,658002
19923,658196
19926,659064
19929,658439
19931,658451
19933,659322
19936,658528
19938,658752
19940,658924
19943,659649
19945,658948
19947,659847
19950,659428
19952,660207
19954,659410
19956,660252
19959,659589
19961,660675
19963,659952
19966,660779
19969,660109
19971,660480
19974,660421
19976,661277
19978,660552
19981,661036
19983,661707
19985,660905
19988,661120
19990,661650
19992,662298
19995,661578
19997,662376
19999,662375
20002,662937
20004,662214
20006,663054
20009,662409
20012,663725
20014,662908
20017,663831
20019,663185
20021,663936
20024,663638
20026,664557
20028,663960
20031,664756
20033,665247
20035,664492
20038,664727
20040,665640
20042,666065
20044,665328
20047,666258
20049,666509
20051,666971
20055,666248
20057,667183
20059,666600
20062,667836
20064,667188
20066,668143
20069,667540
20071,668357
20073,668026
20076,669061
20078,668441
20080,669356
20083,669591
20085,668931
20087,669328
20090,670219
20092,670346
20094,669877
20098,670872
20100,671273
20102,671280
20105,670833
20107,671818
20109,671182
20112,672074
20114,671656
20116,672700
20119,672105
20121,673036
20123,672872
20126,673522
20128,672922
20130,673799
20132,673569
20135,673278
20137,673668
20140,674611
20143,674234
20145,674039
20147,675077
20150,675354
20152,674932
20154,674763
20157,675717
20159,675084
20161,675515
20164,675465
20166,676467
20168,675783
20171,676679
20173,676180
20175,677121
20178,676391
20180,677283
20183,676727
20186,676770
20188,677007
20190,677844
20193,677272
20195,677416
20197,678320
20200,678510
20202,677893
20204,678110
20207,678903
20209,678162
20211,678424
20214,678755
20216,679493
20218,678784
20220,679651
20224,678964
20226,680103
20228,679294
20231,680211
20233,679526
20235,680001
20238,679877
20240,680713
20242,680084
20245,680596
20247,681204
20249,681293
20252,680584
20254,681138
20256,681685
20259,680849
20261,680933
20263,681552
20267,681962
20269,681157
20271,681928
20274,681212
20276,682170
20278,681307
20281,682073
20283,681256
20285,681885
20288,681191
20290,681846
20292,680973
20295,681495
20297,681624
20299,680836
20302,679591
20304,679743
20306,679398
20308,677788
20312,676079
20314,675758
20316,674961
20319,672884
20321,672373
20323,670240
20326,668148
20328,665735
20330,664911
20333,662557
20335,661588
20337,657786
20340,657028
20342,654696
20344,653915
20347,652461
20349,649833
20352,647786
20355,647231
20357,645862
20359,644067
20362,643766
20364,641671
20366,640558
20369,639038
20371,639020
20373,637475
20376,636520
20378,635473
20380,635745
20383,634526
20385,634825
20387,633345
20389,633845
20392,632855
20395,633329
20397,632711
20400,633043
20402,632258
20404,632958
20407,632475
20409,632205
20411,633115
20414,633328
20416,632869
20418,632743
20421,633747
20423,633174
20425,633640
20428,633692
20430,634674
20432,634053
20435,635037
20438,634560
20440,635495
20443,634892
20445,635733
20447,635259
20450,636275
20452,635649
20454,636501
20457,635976
20459,636304
20461,637153
20464,637542
20466,636977
20468,637435
20471,638284
20473,637735
20475,638197
20477,638764
20481,639606
20483,639036
20485,640028
20488,640205
20490,641050
20492,640519
20495,641589
20497,641128
20499,642574
20502,642061
20504,643070
20506,642597
20509,643353
20511,644094
20513,644582
20516,644124
20518,644884
20520,645573
20524,645020
20526,645589
20528,646404
20531,647036
20533,646482
20535,647525
20538,647916
20540,648494
20542,647910
20545,648873
20547,648402
20549,649809
20552,649122
20554,650107
20556,649598
20559,650423
20561,650966
20563,651192
20566,650624
20569,651449
20571,651906
20573,651232
20576,651520
20578,652377
20580,652733
20583,652067
20585,652952
20587,653225
20590,653483
20592,652851
20594,653735
20597,653132
20599,654033
20601,653462
20604,654353
20606,653757
20609,654587
20612,654585
20614,654995
20616,654370
20619,655172
20621,655082
20623,654678
20626,654936
20628,655739
20630,655563
20633,655213
20635,656143
20637,656365
20640,656123
20642,655736
20644,656668
20647,656034
20649,656834
20652,656277
20654,657208
20657,656578
20659,657477
20661,657101
20664,657828
20666,657202
20668,658113
20671,657695
20673,657573
20675,657922
20678,658883
20680,658383
20682,658335
20685,659287
20687,659620
20689,659115
20692,659118
20695,660125
20697,659465
20700,660417
20702,660185
20704,660990
20707,660380
20709,661329
20711,660783
20714,661939
20716,661317
20718,662265
20721,661755
20723,662150
20725,662302
20728,663256
20730,662708
20732,663164
20736,663913
20738,664206
20740,663648
20742,664162
20745,664909
20747,664238
20749,665136
20752,665170
20754,665877
20756,665227
20759,666143
20761,665603
20763,666875
20766,666232
20768,667160
20770,666563
20773,667301
20775,667237
20777,668213
20781,667612
20783,668404
20785,668991
20788,669251
20790,668680
20792,669470
20795,670030
20797,669304
20799,670260
20802,670519
20804,671068
20806,670302
20809,671257
20811,670664
20813,671983
20816,671262
20818,672211
20820,671653
20824,672482
20826,672189
20828,673103
20830,672531
20833,673377
20835,673720
20837,673926
20840,673298
20842,674191
20844,674358
20847,673755
20849,674647
20851,674915
20854,675086
20856,674516
20858,675434
20861,674849
20864,675699
20866,675240
20869,676175
20871,675506
20873,676444
20876,675890
20878,676891
20880,676284
20883,677170
20885,677016
20887,676587
20890,676993
20892,677821
20894,677596
20897,677298
20899,678263
20901,678585
20904,678234
20907,677984
20909,678971
20912,678311
20914,678818
20916,678612
20918,679688
20921,679063
20923,679918
20925,679288
20928,680304
20930,679650
20932,680473
20935,679996
20937,679878
20939,680213
20942,681100
20944,680467
20946,680471
20950,681313
20952,681505
20954,680846
20957,680876
20959,681715
20961,680940
20964,681080
20966,681211
20968,682041
20971,681175
20973,681963
20975,681423
20978,681972
20980,681142
20982,681886
20985,681013
20987,681145
20989,680504
20993,680961
20995,679792
20997,679638
20999,679689
21002,678239
21004,676678
21006,676129
21009,675638
21011,673710
21013,671244
21016,670330
21018,669361
21020,666976
21023,666163
21025,662853
21027,661745
21030,659332
21032,658515
21035,656262
21038,655343
21040,652115
21042,651495
21045,649515
21047,648879
21049,648006
21052,645747
21054,643993
21056,643636
21059,643090
21061,641396
21063,639927
21066,639819
21068,639509
21070,638067
21073,638370
21075,637440
21078,637325
21081,636158
21083,636597
21085,635538
21087,635933
21090,635028
21092,635666
21094,634790
21097,635391
21099,635439
21101,635364
21104,634633
21106,635390
21108,635452
21111,634791
21113,635004
21115,635734
21118,635738
21121,635227
21123,636149
21126,636318
21128,636232
21130,635897
21133,636876
21135,636315
21137,637160
21140,636714
21142,637748
21144,637214
21147,638173
21149,638065
21151,638894
21154,638382
21156,639312
21158,639170
21161,639008
21164,639632
21166,640623
21169,640394
21171,640406
21173,641508
21175,641060
21178,641792
21180,641843
21182,642998
21185,642553
21187,643577
21189,643441
21192,644570
21194,644135
21196,645209
21199,644870
21201,646099
21203,645614
21207,646671
21209,646274
21211,646577
21214,647134
21216,648130
21218,647715
21221,648077
21223,649034
21225,648513
21228,649035
21230,649525
21232,650394
21235,649855
21237,650866
21239,650846
21242,651666
21244,651061
21246,652065
21250,651548
21252,652822
21254,652207
21257,653176
21259,652647
21261,653186
21263,653213
21266,654137
21268,653565
21270,654216
21273,654876
21275,654079
21277,654438
21280,655054
21282,655652
21284,654917
21287,655850
21289,655884
21292,656430
21295,655656
21297,656562
21299,655923
21302,657120
21304,656331
21306,657191
21309,656550
21311,657304
21313,656981
21316,657858
21318,657188
21320,657955
21323,658322
21325,657513
21327,657756
21330,658547
21332,658893
21335,658182
21338,659001
21340,659132
21342,659446
21345,658725
21347,659623
21349,658904
21351,660055
21354,659370
21356,660262
21358,659722
21361,660547
21363,660045
21365,660960
21368,660365
21370,661258
21372,661312
21376,660819
21378,661151
21380,662052
21383,662008
21385,661622
21387,662577
21390,662815
21392,662741
21394,662375
21397,663432
21399,662812
21401,663499
21404,663227
21406,664228
21408,663651
21411,664601
21413,664296
21415,665109
21419,664564
21421,665523
21423,665198
21426,665029
21428,665465
21430,666436
21433,666168
21435,666056
21437,667133
21439,667481
21442,667123
21444,667099
21446,668159
21449,667554
21451,668107
21453,668167
21456,669161
21458,668594
21460,669584
21464,669135
21466,670206
21468,669620
21471,670598
21473,670068
21475,670360
21478,670608
21480,671543
21482,671010
21485,671336
21487,672204
21498,672518
21499,673437
21500,673437
21502,672915
21505,673313
21507,674106
21509,673454
21511,674361
21513,673778
21515,674333
21517,675033
21519,674349
21521,675275
21523,674648
21525,675234
21527,675864
21529,675132
21531,676078
21533,675431
21535,676064
21537,676631
21539,676801
21541,676137
21544,676831
21547,677384
21549,676609
21552,676918
21554,677663
21556,678145
21559,677392
21561,678234
21563,677608
21566,678795
21568,678067
21570,678963
21573,678244
21575,679042
21577,678725
21580,679644
21582,678966
21584,679772
21587,680137
21590,680311
21592,679617
21595,680452
21597,680799
21599,680002
21602,680303
21604,681098
21606,681320
21608,680663
21611,681506
21613,680831
21615,681813
21618,681137
21620,682079
21622,681431
21625,682249
21627,681693
21629,682560
21633,681925
21635,682731
21637,682701
21640,683048
21642,682378
21644,683187
21647,683003
21649,682553
21651,682724
21654,683615
21656,683351
21658,682855
21661,683819
21663,683069
21665,683514
21668,683097
21670,684012
21672,683292
21676,684095
21678,683278
21680,684141
21683,683365
21685,684107
21687,683546
21690,683968
21692,683037
21694,683572
21696,682721
21699,682126
21701,682546
21703,681552
21706,680207
21708,679371
21710,679337
21713,677703
21715,675843
21718,674640
21721,674238
21723,672192
21725,671601
21728,668162
21730,667359
21732,665093
21735,664387
21737,662237
21739,660350
21742,658256
21744,657680
21746,655722
21749,654791
21751,654167
21753,651973
21756,650295
21758,649613
21761,649301
21764,647643
21766,646085
21768,645735
21771,645623
21773,644295
21775,644550
21778,643286
21780,643414
21782,642192
21784,642645
21787,641695
21789,642208
21791,641175
21794,641795
21796,640956
21798,641381
21801,641754
21804,641628
21806,640892
21809,641481
21811,641895
21813,641110
21816,641270
21818,641987
21820,642443
21823,641691
21825,642550
21827,642731
21830,643183
21832,642406
21834,643326
21837,642735
21839,644013
21841,643321
21844,644262
21847,643673
21849,644533
21852,644967
21854,645264
21856,644758
21859,645682
21861,646027
21863,645435
21866,645877
21868,646825
21870,647079
21872,646614
21875,647633
21877,648073
21879,648321
21882,647939
21884,649015
21886,648531
21890,649700
21892,649326
21894,650418
21897,649975
21899,650968
21901,651100
21904,651934
21906,651476
21908,652462
21911,652458
21913,652287
21915,652908
21918,653917
21920,653864
21922,653705
21925,654781
21927,655329
21929,655177
21933,654999
21935,656111
21937,655627
21940,656605
21942,656300
21944,657357
21947,656830
21949,657761
21951,657401
21954,658405
21956,657861
21958,658773
21960,658380
21963,658420
21965,658790
21967,659729
21970,659287
21972,659351
21975,660303
21978,660602
21980,660065
21982,660243
21985,661091
21987,660429
21989,661287
21992,660935
21994,661698
21996,661052
21999,661877
22001,661255
22003,662287
22006,661542
22008,662401
22010,661748
22013,662086
22016,662067
22018,662852
22021,662150
22023,662606
22025,663210
22028,663323
22030,662665
22032,663131
22035,663780
22037,663037
22039,663905
22042,663765
22044,664304
22046,663537
22048,664410
22051,663766
22053,664962
22055,664135
22059,664970
22061,664341
22063,665007
22066,664803
22068,665623
22070,664955
22073,665710
22075,666201
22077,666301
22080,665691
22082,666453
22084,666953
22087,666210
22089,667079
22091,667269
22094,667725
22096,667030
22098,667885
22102,667315
22104,668536
22106,667779
22109,668725
22111,668109
22113,668984
22116,668709
22118,669660
22120,669075
22123,669928
22125,670152
22127,670536
22130,670003
22132,670898
22134,671020
22136,670533
22139,671537
22141,671819
22144,671893
22147,671466
22149,672416
22151,671882
22154,672776
22156,672413
22158,673366
22161,672828
22163,673732
22165,673224
22168,674221
22170,673680
22172,674563
22175,674401
22177,675122
22179,674546
22182,675359
22184,675149
22187,674911
22190,675936
22192,676239
22194,675868
22197,675652
22199,676683
22201,676105
22204,676679
22206,676641
22208,677609
22211,676971
22213,677896
22215,677354
22217,678273
22220,677668
22222,678550
22224,678043
22227,678075
22230,678390
22232,679307
22235,678690
22237,678920
22239,679806
22242,679944
22244,679392
22246,679684
22249,680469
22251,679781
22253,680114
22256,680473
22258,681188
22260,680580
22263,681468
22265,681184
22267,681863
22270,681177
22273,682067
22275,681442
22278,681920
22280,681784
22282,682687
22285,682126
22287,682565
22289,683189
22292,683224
22294,682572
22296,683178
22299,683692
22301,682920
22303,683057
22305,683748
22308,684180
22310,683388
22312,684204
22316,684145
22318,684603
22320,683800
22323,684550
22325,683905
22327,684521
22330,684098
22332,684914
22334,684214
22337,684919
22339,685360
22341,685249
22344,684498
22346,685171
22348,685479
22351,684625
22353,684650
22355,685313
22359,685529
22361,684615
22363,685251
22366,684899
22368,684917
22370,683777
22373,684152
22375,682987
22377,683201
22380,681413
22382,681513
22384,679942
22387,679825
22389,678988
22391,677315
22393,675597
22396,675188
22398,674009
22401,672333
22404,670017
22406,669535
22408,668157
22411,666366
22413,666073
22415,663793
22418,662517
22420,661024
22422,660883
22425,659180
22427,659078
22429,656630
22432,656693
22434,655274
22436,655344
22439,654342
22441,653768
22444,652583
22447,652842
22449,651944
22451,651336
22454,650871
22456,651372
22458,650650
22461,650208
22463,650871
22465,650038
22468,650066
22470,649804
22472,650605
22475,649862
22477,650586
22479,650019
22481,650850
22484,650162
22487,651036
22489,650454
22492,651373
22494,650749
22496,651618
22499,651010
22501,651304
22503,651495
22506,652428
22508,651815
22510,652209
22513,653008
22515,652393
22517,652792
22520,653230
22522,653965
22524,653449
22528,654436
22530,654450
22532,655243
22535,654663
22537,655669
22539,655122
22542,656540
22544,655914
22546,656915
22549,656440
22551,657129
22553,657285
22556,658354
22558,657855
22560,658627
22563,659302
22565,658691
22567,659305
22569,660120
22573,660767
22575,660185
22577,661288
22580,661598
22582,662248
22584,661626
22587,662657
22589,662151
22591,663650
22594,662999
22596,663980
22598,663527
22601,664394
22603,664302
22605,665272
22608,664698
22610,665597
22612,666069
22616,665415
22618,665831
22620,666696
22623,667082
22625,666463
22627,667459
22630,667751
22632,668005
22634,667417
22637,668281
22639,667713
22641,668700
22644,668173
22646,669099
22648,668479
22651,669314
22653,668830
22656,669728
22658,669163
22661,669978
22663,669933
22665,669423
22668,669760
22670,670592
22672,670446
22675,670034
22677,670989
22679,671172
22682,670889
22684,670530
22686,671506
22689,670833
22691,671343
22693,671042
22696,671983
22699,671327
22701,672207
22704,671546
22706,672416
22708,671793
22711,672649
22713,672191
22715,671975
22718,672290
22720,673125
22722,672699
22725,672626
22727,673546
22729,673785
22732,673222
22734,673229
22736,674111
22739,673486
22742,673759
22744,673922
22746,674763
22749,674075
22751,674964
22753,674376
22756,675421
22758,674763
22760,675608
22763,675015
22765,675393
22767,675434
22770,676309
22772,675681
22774,676108
22777,676865
22779,677020
22781,676406
22785,676835
22787,677485
22789,676801
22792,677128
22794,677586
22796,678239
22799,677511
22801,678382
22803,677852
22806,678945
22808,678249
22810,679104
22813,678515
22815,679145
22817,678995
22820,679862
22822,679304
22824,679937
22827,680527
22830,680615
22832,680013
22834,680763
22837,681179
22839,680491
22841,680748
22844,681472
22846,681993
22848,681237
22851,682098
22853,681421
22855,682650
22858,681905
22860,682764
22862,682105
22865,682851
22867,682448
22870,683349
22873,682674
22875,683484
22877,683780
22880,683933
22882,683230
22884,684024
22887,684245
22889,683563
22891,683797
22894,684616
22896,684720
22898,684125
22901,685044
22903,684407
22905,685225
22908,684679
22910,685581
22913,684869
22916,685742
22918,685174
22920,686076
22922,685359
22925,686199
22927,686026
22929,686577
22932,685803
22934,686689
22936,686436
22939,686062
22941,686341
22943,687188
22946,686825
22948,686495
22950,687440
22953,686725
22956,687100
22958,686858
22961,687772
22963,687047
22965,687904
22968,687155
22970,688040
22972,687302
22975,688167
22977,687595
22979,688345
22982,687595
22984,688392
22986,687799
22989,687751
22991,688608
22993,688638
22996,687883
22999,687906
23001,688701
23003,687865
23006,687887
23008,687945
23010,688597
23013,687808
23015,688576
23017,687858
23020,688460
23022,687526
23024,688190
23027,687267
23029,687670
23031,686558
23034,686937
23036,685808
23038,685648
23042,685712
23044,684589
23046,683217
23049,682983
23051,682836
23053,681277
23056,679841
23058,679569
23060,679267
23063,677580
23065,677486
23067,675641
23070,675331
23072,673722
23074,673778
23077,672355
23079,671975
23081,670464
23085,670613
23087,669176
23089,669157
23091,668993
23094,667733
23096,666473
23098,666638
23101,666563
23103,665322
23105,664561
23108,664965
23110,664983
23112,663820
23115,664365
23117,663891
23119,663966
23122,662941
23124,663571
23127,662663
23130,663391
23132,662428
23134,663163
23137,662341
23139,663037
23141,663112
23144,663042
23146,662259
23148,662982
23151,663011
23153,662315
23155,662364
23158,663091
23160,663160
23162,662544
23165,663411
23168,663538
23170,663521
23173,662991
23175,663870
23177,663239
23179,663953
23182,663588
23184,664546
23186,663882
23189,664802
23191,664547
23193,665239
23196,664625
23198,665562
23200,665264
23203,665001
23205,665463
23207,666434
23211,666162
23213,665930
23215,666957
23218,667377
23220,666976
23222,666820
23225,667930
23227,667336
23229,668364
23232,667847
23234,668928
23236,668353
23239,669262
23241,668789
23243,669793
23246,669147
23248,670118
23250,669596
23254,669728
23256,670033
23258,670960
23261,670344
23263,670628
23265,671506
23267,671668
23270,671114
23272,671401
23274,672161
23277,671422
23279,672358
23281,672133
23284,672837
23286,672058
23288,672935
23291,672387
23293,673398
23296,672613
23299,673482
23301,672803
23303,673288
23306,673129
23308,673948
23310,673239
23313,673764
23315,674345
23317,674438
23320,673755
23322,674349
23324,674936
23327,674136
23329,674944
23331,674801
23334,675287
23336,674380
23339,675191
23342,674358
23344,675340
23346,674476
23349,675269
23351,674514
