1020,40.86,41.19
1028,61.31,61.97
1035,71.54,72.44
1042,76.68,77.56
1049,79.32,80.02
1057,80.87,81.3
1064,81.73,82.08
1072,81.95,82.6
1079,82.17,82.84
1086,82.26,82.99
1093,82.19,83.11
1101,82.07,83.04
1108,82.2,82.95
1116,82.18,83.08
1123,82.33,83.06
1130,82.37,83.01
1137,82.23,82.92
1145,82.16,82.93
1153,82.17,82.91
1160,82.06,83.1
1167,81.88,82.98
1174,81.94,83.06
1181,82.1,83.23
1189,82.03,82.95
1197,82.27,82.67
1204,82.38,82.43
1211,82.12,82.47
1218,82.03,82.57
1225,82.04,83.08
1233,81.87,83.55
1241,81.95,83.74
1248,81.94,83.39
1255,81.78,82.57
1262,81.69,82.01
1269,81.61,82.32
1277,81.75,82.85
1285,81.81,83.05
1292,81.8,82.9
1299,81.83,82.57
1306,81.98,82.5
1313,82.06,82.52
1321,82,82.38
1329,81.94,82.5
1336,81.92,82.6
1343,81.79,82.68
1350,81.67,82.87
1357,81.62,83.04
1364,81.65,83.14
1373,81.67,83.29
1380,81.59,83.2
1387,81.43,83.15
1394,81.63,83.06
1401,81.57,83.13
1409,81.66,83.05
1417,81.75,82.95
1424,81.82,82.78
1431,81.79,82.61
1438,81.75,82.61
1445,81.73,82.49
1453,81.57,82.33
1461,81.53,82.39
1468,81.58,82.45
1475,81.4,82.47
1482,81.46,82.54
1489,81.48,82.47
1497,81.43,82.37
1505,81.36,82.45
1512,81.2,82.57
1519,81.15,82.34
1526,81,82.02
1533,80.92,81.76
1541,80.74,82
1549,80.95,82.53
1556,81.32,82.95
1563,80.84,82.92
1570,80.88,82.43
1577,81.07,81.37
1585,81.47,80.4
1593,81.05,79.91
1600,80.57,80.58
1607,80.33,81.73
1614,80.22,82.84
1622,80.51,83.77
1629,80.47,83.6
1637,80.34,82.57
1644,80.25,81.35
1651,80.52,80.66
1658,80.71,80.61
1666,80.64,81.01
1673,80.64,81.31
1680,80.56,81.28
1688,80.56,81.18
1695,80.54,81.38
1702,80.81,81.66
1710,80.74,81.93
1717,80.63,82.02
1724,80.54,81.84
1732,80.52,81.77
1739,80.51,81.73
1746,80.38,81.67
1754,80.4,81.58
1761,80.59,81.45
1768,80.52,81.72
1776,80.5,81.91
1783,80.36,81.98
1790,80.34,81.99
1798,80.5,82.05
1805,80.67,82.01
1812,80.77,82.08
1820,80.65,81.93
1827,80.89,81.62
1835,80.89,81.31
1842,80.43,81.08
1849,80.42,81.28
1856,80.44,81.81
1864,80.44,82.18
1871,80.45,82.46
1879,80.42,82.32
1886,80.28,81.64
1893,80.23,81.14
1900,80.37,81.32
1908,80.29,81.53
1915,80.47,81.85
1923,80.51,81.86
1930,80.31,81.88
1937,80.27,81.86
1944,80.3,81.7
1952,80.48,81.94
1959,80.38,82.11
1967,80.36,82.41
1974,80.16,82.49
1981,80.19,82.54
1988,80.13,82.53
1996,80.15,82.79
2003,80.26,82.98
2011,80.21,83.05
2018,80.29,82.98
2025,80.24,82.82
2032,80.21,82.7
2040,80.29,82.64
2048,80.36,82.62
2055,80.46,82.6
2062,80.5,82.6
2069,80.51,82.82
2077,80.37,82.7
2084,80.54,82.69
2092,80.65,82.71
2099,80.71,82.75
2106,80.51,82.68
2113,80.37,82.52
2121,80.5,82.48
2128,80.51,82.52
2136,80.57,82.3
2143,80.55,81.91
2150,80.61,81.7
2157,80.42,81.31
2165,80.49,81.29
2172,80.48,81.45
2180,80.66,81.89
2187,80.45,82.21
2194,80.72,81.76
2201,80.94,81.16
2209,80.94,80.39
2216,80.82,79.87
2224,80.41,80.43
2231,80.34,81.34
2238,80.39,82.62
2245,80.56,83.68
2253,80.58,84.01
2260,80.62,83.32
2268,80.26,82.34
2275,80.06,81.34
2282,80.31,80.96
2289,80.34,81.29
2297,80.29,81.76
2305,80.42,82.05
2312,80.47,81.93
2319,80.51,81.85
2326,80.7,81.83
2333,80.75,81.75
2341,80.86,81.94
2349,80.82,82.11
2356,80.72,82.27
2363,80.72,82.16
2370,80.87,81.94
2378,80.79,81.84
2385,80.76,81.87
2393,80.8,81.92
2400,80.82,82.06
2407,80.73,82.03
2414,80.89,81.93
2422,80.87,81.98
2429,80.97,81.92
2437,81.05,82.11
2444,81.14,81.63
2451,81.35,81.19
2458,81.1,80.87
2466,80.55,81.05
2473,80.83,81.33
2481,80.73,82.01
2488,80.72,82.53
2495,81.08,82.55
2502,81.06,82.04
2510,80.85,81.51
2518,81.01,81.39
2525,81.08,81.88
2532,80.99,82.2
2539,81.01,82.2
2546,81.14,81.97
2554,81.21,81.71
2562,81.27,81.62
2569,81.24,81.62
2576,81.19,81.61
2583,81.23,81.49
2590,81.3,81.8
2598,81.34,81.94
2606,81.26,82.04
2613,81.22,82.2
2620,81.19,82.19
2627,81.17,82.1
2634,81.03,82.26
2642,81.23,82.29
2650,81.39,82.33
2657,81.51,82.23
2664,81.66,82.29
2671,81.57,82.1
2678,81.41,82.26
2685,81.54,82.23
2694,81.52,82.2
2701,81.52,82.24
2708,81.47,82.13
2715,81.67,82.1
2722,81.66,82.14
2729,81.66,82.08
2738,81.82,82.15
2745,81.74,82.27
2752,81.79,82.24
2759,81.88,82.12
2766,81.69,82.22
2774,81.8,82.38
2782,81.79,82.28
2789,81.71,82.26
2796,81.48,82.14
2803,81.48,81.9
2810,81.53,82.2
2818,82.03,82.66
2826,82.04,83.15
2833,81.56,83.37
2840,81.77,82.88
2847,81.74,81.51
2854,81.9,80.16
2862,81.86,79.69
2870,81.68,80.1
2877,81.5,81.27
2884,81.47,82.88
2891,81.39,84.21
2898,81.55,84.57
2906,81.49,83.51
2914,81.48,82.31
2921,81.44,81.76
2928,81.65,81.74
2935,81.58,81.72
2942,81.49,81.69
2950,81.71,81.66
2958,81.67,81.65
2965,81.87,81.52
2972,81.79,81.67
2979,81.91,81.83
2987,81.71,81.93
2994,81.64,81.84
3002,81.56,81.95
3009,81.63,81.7
3016,81.49,81.57
3023,81.57,81.19
3031,81.45,81.04
3038,81.44,81.18
3046,81.35,81.25
3053,81.21,81.27
3060,81.22,81.34
3067,81.19,81.31
3075,81.17,81.25
3082,81,81.28
3090,81.07,81.21
3097,81.23,80.89
3104,81.21,80.51
3111,80.87,80.26
3119,80.96,80.61
3126,81.14,81.07
3134,80.9,81.68
3141,80.9,82.13
3148,80.99,81.69
3155,80.99,80.91
3163,80.86,80.6
3170,81.11,80.61
3178,81.14,81.16
3185,81.18,81.42
3192,81.27,81.46
3200,81.24,81.32
3207,81.28,81.23
3214,81.29,81.06
3222,81.25,81.15
3229,81.2,81.29
3236,81.2,81.51
3244,81.19,81.79
3251,80.88,81.92
3258,81.09,81.98
3266,81.18,81.81
3273,81.03,81.77
3280,80.88,81.68
3288,80.85,81.78
3295,80.82,81.83
3302,81.05,81.86
3310,80.9,81.86
3317,80.82,81.79
3324,80.8,81.8
3332,80.7,81.61
3339,80.93,81.54
3346,81.04,81.46
3353,80.99,81.24
3361,80.73,81.08
3368,80.68,80.98
3376,80.76,81.06
3383,80.92,81.22
3390,80.84,81.14
3397,80.79,81.38
3405,80.62,81.47
3412,80.66,81.55
3420,80.7,81.83
3427,80.62,81.84
3434,80.53,81.63
3441,80.47,81.38
3449,80.39,81.45
3457,80.67,82
3464,81.13,82.43
3471,80.92,82.65
3478,80.72,82.38
3485,80.84,81.48
3493,81.39,80.39
3501,81.29,80.04
3508,80.64,80.33
3515,80.39,81.17
3522,80.4,82.34
3529,80.86,83.55
3537,80.85,84.04
3545,80.55,83.37
3552,80.46,82.1
3559,80.56,81.07
3566,80.69,80.94
3573,80.66,81.39
3581,80.68,81.92
3589,80.78,81.91
3596,80.87,81.72
3603,80.88,81.69
3610,80.88,81.75
3617,80.85,82.24
3625,80.86,82.68
3633,80.79,82.66
3640,80.76,82.6
3647,80.63,82.37
3654,80.67,82.25
3661,80.73,82.11
3670,80.66,81.96
3677,80.8,81.87
3684,80.82,82.02
3691,80.79,82.28
3698,80.55,82.31
3705,80.65,82.37
3714,80.52,82.51
3721,80.58,82.37
3728,80.78,82.24
3735,81.11,81.79
3742,81.26,81.54
3749,80.71,81.65
3758,80.63,81.93
3765,80.61,82.49
3772,80.47,83.01
3779,80.73,83.12
3786,80.73,82.74
3793,80.43,82.22
3802,80.39,82.06
3809,80.42,82.04
3816,80.44,82.33
3823,80.52,82.55
3830,80.39,82.48
3837,80.45,82.29
3846,80.35,82.06
3853,80.32,82.2
3860,80.35,82.41
3867,80.44,82.61
3874,80.55,82.61
3881,80.37,82.77
3890,80.19,82.74
3897,80.31,82.62
3904,80.35,82.67
3911,80.36,82.71
3918,80.18,82.8
3926,80.17,82.68
3934,80.22,82.57
3941,80.18,82.6
3948,79.98,82.47
3955,80.01,82.44
3962,80.22,82.48
3970,80.19,82.4
3978,80.37,82.39
3985,80.44,82.41
3992,80.63,82.3
3999,80.55,82.36
4006,80.36,82.41
4014,80.3,82.44
4022,80.39,82.4
4029,80.29,82.36
4036,80.41,82.53
4043,80.36,82.65
4050,80.29,82.81
4058,80.09,82.63
4066,80.21,82.4
4073,80.23,82.36
4080,80.16,82.3
4087,80.44,83.23
4094,80.54,83.69
4102,80.42,83.5
4110,80.53,82.91
4117,80.62,82.22
4124,80.52,81.69
4131,80.36,81.29
4139,80.06,81.7
4146,80.02,82.68
4154,80.12,83.74
4161,80.22,84.77
4168,80.33,84.89
4175,80.18,83.87
4183,79.96,82.52
4190,80.04,81.75
4198,80.42,82.01
4205,80.66,82.67
4212,80.76,83.23
4219,80.72,83.29
4227,80.71,83.07
4234,80.63,83.24
4241,80.59,83.58
4249,80.53,83.92
4256,80.68,84.1
4263,80.58,83.94
4271,80.64,83.79
4278,80.53,83.46
4285,80.51,83.33
4293,80.54,83.32
4300,80.7,83.28
4307,80.59,83.42
4315,80.58,83.6
4322,80.58,83.51
4329,80.59,83.35
4337,80.67,83.33
4344,80.78,83.19
4352,80.94,82.95
4359,81.12,82.27
4366,81.43,81.69
4373,81.06,81.12
4381,80.95,81.26
4388,80.98,81.52
4396,81.06,82.4
4403,80.92,83.02
4410,80.85,82.91
4417,80.9,82.48
4424,80.87,82.07
4432,80.73,82.19
4440,80.74,82.66
4447,80.69,83.16
4454,80.75,83.14
4461,80.81,82.68
4468,80.82,82.34
4476,80.79,82.18
4484,80.71,82.26
4491,80.72,82.28
4498,80.46,82.31
4505,80.65,82.4
4512,80.73,82.54
4520,80.53,82.66
4528,80.44,82.65
4535,80.71,82.58
4542,80.57,82.74
4549,80.68,82.82
4556,80.52,82.85
4564,80.65,79.31
4572,80.75,80.92
4579,80.8,81.53
4586,80.67,81.84
4593,80.59,81.84
4600,80.72,81.89
4609,80.75,82.02
4616,80.87,82.15
4623,80.9,82.09
4630,80.83,82.17
4637,80.91,82.1
4644,81.15,82.04
4653,80.98,82.06
4660,81.02,82.19
4667,81.09,82.27
4674,81.18,82.22
4681,81.15,82.23
4688,81.06,81.96
4697,80.85,81.96
4704,80.74,81.91
4711,80.97,82.2
4718,81.56,82.67
4725,81.67,83.18
4732,81.31,83.12
4741,81.28,82.66
4748,81.43,81.86
4755,81.55,80.88
4762,81.41,80.25
4769,81.28,80.63
4776,81.1,81.97
4785,81.13,83.06
4792,81.35,84.19
4799,81.24,84.36
4806,81.43,83.43
4813,81.35,82.62
4820,81.44,81.97
4829,81.37,82.01
4836,81.49,82.35
4843,81.47,82.38
4850,81.41,82.36
4857,81.52,82.2
4865,81.78,82.05
4873,81.92,82.04
4880,81.84,82.16
4887,81.83,82.17
4894,81.72,82.18
4901,81.87,82.08
4909,81.92,81.99
4917,81.98,82.21
4924,82.13,82.14
4931,81.81,82.01
4938,81.67,82.1
4945,81.68,82.15
4953,81.59,82.18
4961,81.75,82.09
4968,81.67,82.08
4975,81.67,82.02
4982,81.84,81.85
4989,82.05,81.7
4997,81.73,81.51
5005,81.51,81.28
5012,81.45,81.34
5019,81.72,81.76
5026,81.62,82.01
5033,81.69,82.45
5041,81.79,82.66
5049,81.54,82.21
5056,81.39,81.61
5063,81.46,81.28
5070,81.61,81.64
5078,81.53,81.94
5085,81.54,81.99
5093,81.53,82
5100,81.64,81.72
5107,81.61,81.45
5114,81.55,81.16
5122,81.54,81.25
5129,81.51,81.16
5137,81.54,81.35
5144,81.56,81.64
5151,81.58,81.71
5158,81.52,81.78
5166,81.51,81.73
5173,81.2,81.64
5181,81.4,81.68
5188,81.33,81.79
5195,81.32,81.69
5202,81.29,81.59
5210,81.25,81.74
5217,81.19,81.81
5225,81.27,81.72
5232,81.23,81.6
5239,81.42,81.6
5246,81.35,81.43
5254,81.33,81.43
5261,81.35,81.28
5269,81.35,81.39
5276,81.27,81.38
5283,81.35,81.26
5291,81.26,81.49
5298,81.17,81.34
5305,81.08,81.57
5313,81.02,81.63
5320,81.1,81.79
5327,80.88,81.7
5335,80.71,81.45
5342,80.68,81.39
5349,80.61,81.83
5357,81.16,82.17
5364,81.47,82.63
5371,81.04,82.7
5379,81.02,81.92
5386,81.1,80.87
5393,81.59,79.69
5401,81.32,79.47
5408,80.85,80.13
5415,80.66,81.2
5423,80.76,82.74
5430,80.77,83.73
5437,80.82,83.48
5445,80.7,82.65
5452,80.56,81.65
5459,80.66,81.04
5467,80.86,81.14
5474,80.62,81.42
5481,80.79,81.74
5489,81.01,81.53
5496,81.15,81.37
5504,81.25,81.62
5511,81.17,81.72
5518,81.04,81.97
5525,80.95,82.26
5533,80.96,82.42
5540,81.08,82.41
5548,81.12,82.23
5555,81.01,82.15
5562,81.12,82.15
5569,81.18,82.11
5577,81.17,81.95
5584,81.06,82.23
5592,81.18,82.38
5599,81.11,82.48
5606,81.34,82.5
5613,81.35,82.4
5621,81.24,82.36
5628,81.3,82.22
5636,81.43,82.02
5643,81.32,81.97
5650,81.09,82.07
5657,81.03,82.28
5665,80.93,82.8
5672,81.01,83.18
5680,80.96,83.4
5687,80.89,82.96
5694,80.79,82.06
5701,80.92,81.88
5708,81.16,82.01
5716,81.11,82.55
5724,81.16,82.86
5731,81.01,82.8
5738,81.16,82.53
5745,81.09,82.35
5752,81.06,82.41
5761,80.96,82.38
5768,80.92,82.59
5775,80.79,82.62
5782,80.53,82.75
5789,80.55,82.63
5797,80.42,82.92
5805,80.43,82.99
5812,80.45,83.09
5819,80.59,83.22
5826,80.7,83.17
5833,80.75,83.18
5840,80.98,83.06
5849,80.85,83
5856,80.91,82.91
5863,80.78,82.88
5870,80.78,82.92
5877,80.81,83.03
5884,80.78,83.06
5893,80.78,79.38
5900,80.85,81.14
5907,80.89,82
5914,81.04,82.57
5921,80.92,82.66
5928,80.78,82.92
5937,80.57,83.09
5944,80.57,83.1
5951,80.53,83.18
5958,80.61,83.19
5965,80.64,83.14
5972,80.43,79.61
5980,80.4,81.39
5988,80.3,82.73
5995,80.54,83.58
6002,80.65,83.86
6009,80.45,83.34
6017,80.88,82.81
6025,81.07,82
6032,80.9,81.55
6039,80.27,81.66
6046,79.94,82.52
6053,80.22,83.77
6061,80.29,84.89
6068,80.43,85.33
6076,80.57,84.57
6083,80.51,83.35
6090,80.48,82.38
6097,80.8,82.18
6105,80.7,82.57
6112,80.83,83.19
6120,80.93,83.4
6127,80.82,83.36
6134,80.9,83.56
6141,80.94,83.86
6149,80.99,84.04
6156,80.78,84.33
6163,80.79,84.22
6171,80.71,84.1
6178,80.73,83.86
6185,80.86,83.82
6193,80.84,83.77
6200,81.01,83.88
6207,80.79,83.95
6215,80.79,84.17
6222,80.69,84.12
6230,80.58,84.13
6237,80.8,84.05
6244,80.87,84.09
6251,80.9,84.03
6259,81.09,83.57
6266,81.53,82.67
6274,81.41,82.08
6281,80.99,81.97
6288,80.92,82.27
6295,80.83,82.95
6303,80.85,83.47
6310,81.05,83.33
6318,81.19,82.67
6325,81.23,82.34
6332,81.21,82.35
6339,81.1,82.82
6347,81.02,83.31
6354,81.06,83.49
6362,81.06,83.05
6369,80.99,82.76
6376,81.01,82.62
6383,81.21,82.54
6391,81.2,82.5
6398,81.05,82.39
6406,81,82.32
6413,81.11,82.25
6420,80.87,82.28
6427,80.87,82.4
6435,80.76,82.39
6443,80.83,82.41
6450,80.63,82.5
6457,80.75,82.49
6464,80.72,82.54
6471,80.68,82.69
6479,80.8,82.54
6487,80.9,82.58
6494,80.87,82.43
6501,80.93,82.21
6508,80.9,82.31
6515,81.17,82.18
6523,81.22,82.2
6531,81.17,82.18
6538,81.23,82.14
6545,81.24,82.14
6552,81.22,82.2
6559,81.13,82.06
6567,81.25,82.13
6575,81.23,82.25
6582,81.29,82.02
6589,81.24,81.79
6596,80.98,81.77
6603,80.99,82.09
6611,81.02,82.59
6619,81.4,82.96
6626,81.33,83.24
6633,81.19,82.89
6640,81.03,82.08
6647,81.04,81.21
6656,81.14,80.54
6663,81.02,80.1
6670,80.87,80.91
6677,80.9,82.15
6684,81.02,83.62
6691,81.17,84.17
6699,81.35,83.81
6707,81.27,82.86
6714,81.29,81.97
6721,81.3,81.45
6728,81.42,81.55
6735,81.35,81.9
6743,81.27,82.03
6751,81.17,82.03
6758,81.29,81.89
6765,81.47,81.77
6772,81.54,81.64
6779,81.54,81.79
6787,81.44,81.69
6795,81.4,81.81
6802,81.38,81.76
6809,81.39,81.73
6816,81.37,81.78
6823,81.38,81.81
6831,81.3,81.78
6839,81.32,81.84
6846,81.35,81.85
6853,81.25,81.99
6860,81.42,81.9
6867,81.49,81.97
6875,81.44,81.98
6883,81.49,81.73
6890,81.76,81.37
6897,81.64,81
6904,81.27,80.94
6912,81.53,81.3
6919,81.69,81.64
6927,81.39,82.27
6934,81.59,82.46
6941,81.63,82.35
6948,81.47,81.78
6956,81.25,81.34
6963,81.4,81.06
6971,81.35,81.38
6978,81.31,81.94
6985,81.27,81.85
6992,81.22,81.77
7000,81.38,81.5
7007,81.5,81.33
7015,81.46,81.05
7022,81.43,81.22
7029,81.42,81.39
7036,81.51,81.52
7044,81.5,81.73
7051,81.49,81.68
7058,81.42,81.71
7066,81.43,81.77
7073,81.29,81.82
7080,81.43,81.83
7088,81.48,81.8
7095,81.52,81.73
7103,81.47,81.58
7110,81.37,81.53
7117,81.29,81.62
7124,81.35,81.7
7132,81.25,81.63
7139,81.34,81.57
7147,81.42,81.66
7154,81.42,81.57
7161,81.3,81.42
7169,81.31,81.41
7176,81.36,81.4
7183,81.29,81.49
7191,81.28,81.68
7198,81.33,81.75
7205,81.34,81.88
7213,81.25,81.63
7220,81.33,81.44
7227,80.9,81.25
7235,80.85,81.25
7242,80.97,81.89
7249,81.58,82.38
7257,81.49,82.92
7264,81.09,82.93
7271,81.09,82.29
7279,81.25,80.99
7286,81.62,79.96
7293,81.47,79.51
7301,81.08,80.11
7308,80.71,81.39
7315,80.8,82.89
7323,81.1,83.87
7330,81.04,83.76
7337,80.93,82.83
7345,81.08,81.59
7352,81.13,81.04
7359,81.19,81.17
7367,81.24,81.59
7374,81.22,81.88
7382,81.37,81.74
7389,81.49,81.41
7396,81.47,81.31
7403,81.35,81.57
7411,81.32,81.86
7418,81.31,82.11
7426,81.18,82.2
7433,81.03,82.15
7440,81.02,82.11
7447,81.03,82.1
7455,81.16,82.12
7462,81.02,82.03
7470,80.91,82.12
7477,81.18,82.1
7484,80.93,82.14
7491,81.06,82.22
7499,80.85,82.23
7506,81.02,82.06
7514,81.14,81.97
7521,81.21,81.71
7528,81.39,81.45
7535,81.13,81.41
7543,81.03,81.4
7550,80.74,81.95
7558,80.58,82.47
7565,80.64,83.09
7572,80.59,83.1
7579,80.58,82.34
7587,80.5,81.74
7595,80.68,81.58
7602,80.78,81.88
7609,80.78,82.17
7616,80.8,82.59
7623,80.65,82.34
7631,80.63,81.87
7639,80.69,81.61
7646,80.64,81.65
7653,80.86,82.01
7660,80.89,82.13
7667,80.51,82.12
7675,80.46,82.21
7683,80.41,82.25
7690,80.37,82.28
7697,80.3,82.17
7704,80.2,82.22
7711,80.19,82.4
7719,80.18,82.47
7727,80.21,82.36
7734,80.21,82.37
7741,80.28,82.15
7748,80.45,81.91
7755,80.63,81.96
7763,80.81,82.01
7771,80.68,82.09
7778,80.54,82.26
7785,80.38,82.28
7792,80.4,82.15
7799,80.28,82.19
7808,80.2,82.15
7815,80.32,82.15
7822,80.26,82.22
7829,80.17,82.43
7836,80.19,82.66
7843,80.15,82.6
7852,80,82.23
7859,79.89,82.01
7866,79.97,81.8
7873,79.99,82.26
7880,80.33,82.88
7887,80.41,83.26
7896,80.23,82.88
7903,80.54,82.14
7910,80.54,81.42
7917,80.33,80.72
7924,79.76,80.52
7931,79.34,81.46
7940,79.6,82.6
7947,79.79,83.8
7954,79.86,84.4
7961,79.75,83.99
7968,79.91,82.78
7975,79.94,81.76
7984,80.22,81.42
7991,80.37,81.65
7998,80.36,82.31
8005,80.31,82.79
8012,80.37,82.62
8019,80.28,82.58
8028,80.19,82.87
8035,80.18,83.23
8042,80.05,83.44
8049,80,83.51
8056,80.11,83.58
8064,80.29,83.45
8071,80.22,83.07
8079,80.12,82.94
8086,80.18,82.96
8093,80.32,83.06
8100,80.17,83.07
8108,80.05,83.11
8115,80.03,83.41
8122,80.1,83.34
8130,80.33,83.35
8137,80.34,83.19
8144,80.45,82.8
8152,81.02,82.19
8159,80.68,82.13
8167,80.2,82.26
8174,80.14,83.01
8181,80.05,83.87
8188,80.17,84.16
8196,80.47,83.93
8203,80.3,83.32
8210,80.31,82.94
8218,80.28,83.06
8225,80.29,83.57
8232,80.33,83.63
8240,80.12,83.38
8247,80.09,83.29
8254,80.4,82.99
8262,80.48,82.99
8269,80.63,83.16
8276,80.64,83.31
8284,80.4,83.24
8291,80.4,83.11
8298,80.38,82.91
8306,80.33,82.87
8313,80.35,82.89
8321,80.34,83.01
8328,80.35,83.2
8335,80.25,83.16
8342,80.29,83.05
8349,80.34,82.96
8357,80.29,82.85
8365,80.47,82.65
8372,80.62,82.62
8379,80.75,82.46
8386,80.86,82.44
8393,80.95,82.29
8401,80.87,82.23
8409,80.76,82.15
8416,80.86,81.98
8423,80.92,81.85
8430,80.69,82
8438,80.61,82.14
8445,80.45,82.32
8453,80.43,82.22
8460,80.6,82.26
8467,80.49,82.23
8474,80.28,82.69
8481,80.35,82.95
8489,80.7,83.04
8497,80.77,82.86
8504,80.66,82.69
8511,80.66,82.23
8518,80.81,81.46
8526,80.83,80.88
8534,80.59,81.22
8541,80.57,82.32
8548,80.49,83.74
8555,80.58,84.78
8562,80.74,85.06
8569,80.77,83.92
8578,80.71,83.02
8585,80.69,82.32
8592,80.68,82.09
8599,80.8,82.21
8606,80.84,82.47
8613,80.95,82.43
8622,80.81,82.31
8629,81,82.32
8636,81.08,82.37
8643,81.04,82.3
8650,81.2,82.45
8657,81.07,82.46
8666,80.94,82.49
8673,81.08,82.45
8680,81.03,82.49
8687,81.23,82.22
8694,81.28,82.14
8701,81.14,82.28
8710,80.99,82.37
8717,80.89,82.34
8724,80.79,82.54
8731,80.95,82.54
8738,81.09,82.55
8745,81.32,82.23
8754,81.52,81.73
8761,81.3,81.18
8768,81.06,81.37
8775,81.11,81.53
8782,81.11,82.15
8790,81.16,82.58
8798,81.26,82.65
8805,81.35,82.3
8812,81.27,81.64
8819,81.18,81.74
8826,81.24,82.14
8834,81.19,82.37
8842,81.36,82.52
8849,81.23,82.15
8856,81.37,81.92
8863,81.35,81.76
8870,81.4,81.86
8878,81.29,81.92
8886,81.12,81.69
8893,81.2,81.7
8900,81.25,81.61
8907,81.28,81.86
8914,81.25,81.96
8922,81.27,82.07
8930,81.22,82.19
8937,81.16,82.25
8944,81.29,82.26
8951,81.3,82.23
8958,81.28,82.11
8966,81.23,82
8974,81.18,81.95
8981,81.3,81.88
8988,81.37,81.98
8995,81.31,81.88
9003,81.2,81.85
9010,81.15,81.84
9018,81.27,81.76
9025,81.37,81.67
9032,81.32,81.78
9039,81.24,81.78
9047,81.27,82.03
9054,81.15,81.97
9062,81.05,81.91
9069,81.1,81.88
9076,81.02,81.7
9083,80.83,81.7
9091,80.81,81.5
9098,81.13,81.95
9106,81.58,82.44
9113,81.24,83.08
9120,80.95,82.8
9127,81.17,81.9
9135,81.04,80.7
9142,81.24,79.72
9150,81.29,79.47
9157,81.02,80.24
9164,80.75,81.58
9171,80.68,83.01
9179,80.69,84.15
9186,80.72,84.11
9194,80.56,82.8
9201,80.44,81.57
9208,80.65,81.09
9216,80.74,81.02
9223,80.64,81.36
9230,80.81,81.45
9238,80.91,81.36
9245,80.94,81.04
9252,81.07,81.03
9260,81.04,81.14
9267,81.03,81.18
9274,81.07,81.26
9281,80.97,81.5
9289,81.03,81.6
9296,81.08,81.6
9304,81.22,81.37
9311,81.21,81.26
9318,81.13,81.43
9325,81.02,81.51
9333,80.98,81.71
9340,81.05,81.8
9348,81,81.72
9355,80.93,81.8
9362,81.05,81.82
9369,80.95,81.58
9376,81.25,81.54
9384,81.5,81.29
9392,81.08,81.28
9399,80.9,81.47
9406,80.99,81.81
9413,80.78,82.21
9420,80.64,82.66
9428,80.71,82.66
9436,80.68,82
9443,80.65,81.61
9450,80.86,81.64
9457,80.91,82.13
9464,80.93,82.47
9473,81.05,82.49
9480,80.86,82.38
9487,80.8,82.17
9494,80.84,81.95
9501,80.88,81.91
9508,80.96,82.1
9517,80.99,82.24
9524,80.9,82.26
9531,80.81,82.36
9538,80.64,82.35
9545,80.77,82.35
9552,80.73,82.5
9561,80.86,82.61
9568,80.9,82.63
9575,80.74,82.61
9582,80.76,82.52
9589,80.75,82.48
9597,80.79,82.48
9605,80.89,82.59
9612,80.87,82.41
9619,80.83,82.51
9626,80.77,82.41
9633,80.88,82.44
9641,80.97,82.64
9649,81.09,82.54
9656,81.11,82.3
9663,81.19,82.55
9670,81.13,82.51
9677,80.66,82.59
9686,80.68,82.75
9693,80.68,82.81
9700,80.65,83.08
9707,80.7,82.98
9714,80.51,82.75
9721,80.35,82.44
9729,80.47,82.61
9737,80.65,83.05
9744,80.9,83.53
9751,80.59,83.4
9758,80.57,82.9
9765,80.73,82.17
9773,80.99,81.59
9781,80.56,81.34
9788,80,81.66
9795,79.79,82.68
9802,79.97,84.28
9809,80.17,85
9817,80.23,85.24
9824,80.28,84.2
9832,80.32,82.91
9839,80.53,82.13
9846,80.61,82.18
9853,80.67,82.66
9861,80.64,83.01
9868,80.82,82.8
9876,80.93,82.82
9883,80.9,82.93
9890,80.96,83.07
9897,80.73,83.62
9905,80.83,83.81
9912,80.69,83.83
9920,80.69,83.7
9927,80.52,83.47
9934,80.51,83.23
9942,80.54,83.17
9949,80.76,83.35
9956,80.96,83.31
9963,80.86,83.3
9971,80.8,83.41
9978,80.78,83.71
9986,80.83,83.79
9993,80.88,83.74
10000,80.75,83.57
10007,80.98,83.36
10015,81.28,82.81
10022,80.86,82.92
10030,80.43,83.23
10037,80.36,83.76
10045,80.6,84.36
10052,80.71,84.78
10059,80.53,84.45
10066,80.51,83.99
10074,80.29,83.71
10082,80.26,83.68
10089,80.27,83.86
10096,80.39,84.15
10103,80.48,84.27
10110,80.48,83.96
10119,80.66,83.79
10126,80.78,83.6
10133,80.86,83.66
10140,80.78,83.75
10148,80.62,84.01
10156,80.47,84
10163,80.54,83.94
10170,80.49,83.8
10177,80.52,83.83
10185,80.4,83.65
10192,80.39,83.67
10200,80.42,83.85
10207,80.35,83.8
10214,80.29,83.42
10222,80.39,83.31
10229,80.33,83.24
10236,80.62,83.1
10244,80.73,83.11
10251,80.9,83.19
10259,80.92,83
10266,80.89,82.99
10273,80.93,82.99
10280,80.74,82.9
10289,80.59,82.86
10296,80.6,83
10303,80.86,83.11
10310,80.83,82.93
10317,80.99,83.08
10324,80.77,82.81
10333,80.64,82.58
10340,80.67,82.72
10347,80.7,83.12
10354,81.05,83.68
10362,80.73,83.73
10370,80.95,83.27
10377,80.86,82.83
10384,80.94,82.13
10391,81.06,81.62
10399,80.75,81.59
10406,80.66,82.46
10414,80.67,83.6
10421,80.67,84.81
10428,80.91,85.61
10436,80.69,85.1
10443,80.54,83.97
10450,80.54,82.89
10458,80.71,82.58
10466,80.82,82.82
10473,80.87,83.06
10480,80.81,83.25
10487,80.92,83.21
10494,81.01,83
10503,81.11,82.96
10510,81.12,83.08
10517,81.07,83.16
10524,81.26,83.24
10531,81.17,83.2
10539,81.02,83.15
10547,81.09,83.05
10554,81.11,82.99
10561,81.23,83
10568,81.14,82.97
10576,81.1,82.98
10584,81.01,82.97
10591,80.86,83.01
10598,81.04,83.08
10605,81.05,82.98
10613,81.22,82.84
10620,81.59,82.5
10628,81.49,81.99
10635,81.22,81.83
10642,81.18,82.12
10650,81.18,82.9
10657,81.03,83.47
10664,81.23,83.45
10672,81.22,83.03
10679,81.26,82.5
10687,81.14,82.3
10694,80.87,82.49
10701,80.96,82.83
10708,80.98,82.93
10717,80.99,82.61
10724,81.02,82.42
10731,81.13,82.3
10738,81.13,82.38
10745,81.04,82.31
10754,81.1,82.28
10761,81.16,82.3
10768,81.22,82.36
10775,81.23,82.38
10783,81.28,82.55
10790,81.35,82.57
10798,81.39,82.64
10805,81.27,82.65
10812,81.17,82.5
10820,81.21,82.54
10827,81.12,82.54
10834,81.2,82.47
10842,81.24,82.35
10850,81.15,82.31
10857,81.35,82.14
10864,81.23,82.13
10871,81.13,82.19
10878,81.31,82.19
10887,81.09,82.05
10894,81.28,82.16
10901,81.14,82.02
10908,81.16,81.76
10916,81.3,81.77
10924,81.11,81.9
10931,81.1,82.1
10938,81.07,82.04
10945,81.29,82.22
10953,81.24,82.17
10960,81.09,82.07
10968,80.95,81.83
10975,80.99,81.84
10982,81.2,82.33
10990,81.74,82.79
10997,81.22,83.14
11004,80.97,82.99
11012,81.17,82.2
11020,81.41,80.99
11027,81.52,80
11034,81.37,79.76
11041,81.03,80.47
11048,81.04,81.96
11057,81.12,83.36
11064,81.25,84.09
11071,81.14,83.54
11078,80.88,82.49
11085,80.9,81.61
11094,81.03,81.34
11101,81.18,81.72
11108,81.07,81.97
11115,81.03,82.22
11122,81.08,81.97
11130,81.17,81.91
11138,81.36,81.95
11145,81.1,82.12
11152,81.1,82.38
11159,81.19,86.15
11167,81.09,84.23
11174,81.09,83.01
11182,81.16,82.5
11189,81.22,82.12
11197,81.11,82.04
11204,81.08,81.96
11211,81,82.19
11218,81.03,82.18
11226,81,82.27
11234,81.14,82.31
11241,81.12,82.27
11248,81.16,82.29
11255,81.37,82.17
11262,81.52,81.98
11271,81.29,81.89
11278,80.86,81.83
11285,80.9,81.92
11292,80.97,82.17
11300,80.84,82.69
11308,80.94,82.94
11315,80.86,82.68
11322,80.76,82.02
11329,80.84,81.65
11337,81.03,81.99
11344,81.15,82.59
11352,80.94,82.97
11359,80.8,82.84
11366,80.9,82.77
11374,80.78,82.45
11381,80.94,82.4
11388,81.07,82.48
11396,81.01,82.56
11404,80.89,82.56
11411,80.7,82.65
11418,80.79,82.87
11425,80.84,82.98
11432,80.86,83.01
11441,80.93,82.84
11448,80.94,82.81
11455,80.82,82.86
11462,80.7,82.85
11469,80.86,82.89
11478,80.87,82.8
11485,80.98,82.84
11492,81.03,82.63
11499,80.95,82.76
11507,80.96,82.85
11514,80.93,82.86
11522,81.05,82.71
11529,81.11,82.65
11536,81.04,82.59
11544,81.1,82.78
11551,80.88,82.92
11558,80.78,83.07
11566,80.79,83.07
11573,80.77,83.04
11581,80.91,83.14
11588,80.79,83.12
11595,80.76,83.15
11602,80.75,82.87
11610,80.65,82.7
11618,80.47,83.1
11625,80.83,83.69
11632,80.87,84.01
11639,80.56,83.79
11648,80.65,83.22
11655,81.17,82.46
11662,81.29,81.92
11669,81.01,81.67
11676,80.29,82.18
11684,80.33,83.22
11692,80.4,84.36
11699,80.55,85.33
11706,80.52,85.41
11714,80.39,84.31
11721,80.54,83.02
11728,80.73,82.26
11736,80.77,82.29
11743,80.88,82.87
11751,80.86,83
11758,81.01,83.04
11765,81.2,82.87
11772,81.12,83.13
11780,81.06,83.45
11788,80.94,83.94
11795,80.88,83.93
11802,80.72,84.06
11809,80.7,83.93
11817,80.79,83.8
11825,80.8,83.71
11832,80.79,83.6
11839,80.82,83.57
11846,81.08,83.47
11854,80.95,83.48
11862,80.9,83.82
11869,80.7,83.77
11876,80.72,83.98
11883,80.66,83.81
11891,80.91,83.36
11898,81.12,82.93
11906,81.2,82.63
11913,80.64,82.75
11921,80.6,83.09
11928,80.65,83.65
11935,80.76,84.22
11942,80.69,84.33
11950,80.78,83.9
11958,80.65,83.21
11965,80.62,83.08
11972,80.52,83.23
11979,80.67,83.36
11986,80.9,83.68
11995,80.9,83.55
12002,80.93,83.35
12009,80.96,83.19
12016,80.79,83.34
12023,80.82,83.5
12032,80.72,83.53
12039,80.7,83.65
12046,80.81,84
12053,80.84,84.03
12060,80.76,83.88
12068,80.58,84.02
12076,80.6,84.3
12083,80.64,84.48
12090,80.73,84.47
12097,80.6,84.48
12105,80.6,84.24
12112,80.73,84.17
12120,80.7,84.09
12127,80.68,83.78
12134,80.71,83.91
12142,80.71,83.89
12149,80.68,83.93
12156,80.6,83.94
12164,80.62,83.98
12172,80.54,84.02
12179,80.65,83.92
12186,80.66,83.93
12193,80.7,84.07
12200,80.68,83.84
12209,80.59,83.73
12216,80.65,83.67
12223,80.74,83.41
12230,80.79,83.24
12238,80.53,83
12246,80.44,83.08
12253,80.62,83.41
12260,80.73,83.59
12267,80.75,83.16
12275,81.15,82.83
12282,81.04,82.09
12290,80.97,81.62
12297,80.79,81.27
12304,80.57,81.73
12312,80.56,82.41
12319,80.63,83.52
12326,80.71,84.56
12334,80.72,84.49
12341,80.47,83.8
12349,80.38,82.54
12356,80.44,81.87
12363,80.67,82.13
12370,80.75,82.61
12378,80.63,82.91
12386,80.68,82.78
12393,80.57,82.47
12400,80.58,82.41
12407,80.46,82.44
12416,80.56,82.7
12423,80.68,82.81
12430,80.59,82.96
12437,80.49,83.16
12444,80.51,82.84
12452,80.36,82.69
12460,80.21,82.62
12467,80.25,82.46
12474,80.11,82.46
12482,80.03,82.43
12489,79.94,82.37
12496,79.97,82.42
12504,80.01,82.51
12511,80.2,82.54
12519,80.59,82.05
12526,80.67,81.41
12533,80.29,81.03
12540,80.13,81.15
12549,80.52,81.65
12556,80.38,82.13
12563,80.59,82.41
12570,80.55,82.19
12577,80.47,81.69
12585,80.52,81.3
12593,80.48,81.38
12600,80.63,81.86
12607,80.59,82.11
12615,80.65,82.04
12622,80.66,82
12630,80.78,81.69
12637,80.72,81.74
12644,80.81,81.66
12652,80.76,81.69
12659,80.75,81.73
12666,80.68,81.72
12674,80.66,81.76
12682,80.58,81.77
12689,80.69,81.83
12696,80.61,81.84
12703,80.68,81.87
12710,80.69,81.99
12719,80.49,81.97
12726,80.48,81.95
12733,80.43,81.92
12740,80.48,81.94
12747,80.65,81.92
12755,80.6,81.93
12763,80.73,82
12770,80.87,81.93
12777,80.92,81.89
12785,80.91,81.85
12792,80.73,81.86
12800,80.79,81.78
12807,80.84,81.68
12814,80.71,81.64
12822,80.92,81.85
12829,80.87,81.75
12836,80.75,81.85
12844,80.79,81.91
12852,80.85,81.99
12859,80.7,81.91
12866,80.67,81.85
12873,80.66,81.77
12880,80.84,81.98
12889,81.17,82.3
12896,81.22,82.82
12903,80.75,82.88
12910,80.79,82.34
12917,80.86,81.41
12925,81.13,80.5
12933,81.42,79.92
12940,81.03,80.31
12947,80.81,81.29
12955,80.96,82.85
12962,81.22,84.33
12969,81.16,84.66
12977,80.95,83.6
12984,81.08,82.54
12992,81.13,81.91
12999,81.2,81.75
13006,81.13,81.96
13014,81.06,82.26
13021,81.17,82.21
13029,81.38,82.05
13036,81.47,82.42
13043,81.53,82.63
13050,81.5,82.88
13059,81.5,82.63
13066,81.42,82.65
13073,81.32,82.73
13080,81.36,82.7
13087,81.25,82.44
13095,81.33,82.27
13103,81.31,82.3
13110,81.3,82.43
13117,81.33,82.36
13125,81.27,82.37
13132,81.26,82.28
13139,81.38,82.56
13147,81.48,82.53
13154,81.44,82.67
13162,81.53,82.31
13169,81.52,82.29
13176,81.32,82.05
13184,81.01,82.07
13191,81.1,82.35
13199,81.16,82.69
13206,81.13,83.19
13213,81.23,83.25
13220,81.17,82.41
13229,80.96,81.82
13236,81.11,81.72
13243,81.15,82.28
13250,81.25,82.87
13257,81.05,82.86
13265,80.99,82.77
13273,81.08,82.46
13280,81.15,82.18
13287,81.26,82.26
13295,81.23,82.51
13302,81.16,82.58
13309,81.31,82.68
13317,81.1,82.72
13324,81.12,82.6
13332,80.99,82.76
13339,80.9,82.69
13346,80.79,82.87
13353,80.77,82.98
13362,80.67,82.89
13369,80.86,82.75
13376,80.77,82.82
13383,80.81,82.8
13390,80.85,82.72
13399,80.86,82.65
13406,80.87,82.63
13413,80.98,82.6
13420,80.87,82.58
13427,80.98,82.68
13435,80.81,82.73
13443,80.78,82.87
13450,80.84,82.85
13457,80.73,82.94
13464,80.75,83.07
13472,80.73,83.12
13479,80.75,83.12
13487,80.57,83.12
13494,80.58,83.09
13502,80.64,82.97
13509,80.72,82.89
13516,80.68,82.69
13523,80.8,83.03
13531,81.01,83.41
13539,80.7,83.54
13546,80.45,83.33
13553,80.82,82.82
13560,81.2,81.92
13568,81.3,81.47
13576,80.81,81.44
13583,80.38,82.05
13590,80.49,82.94
13597,80.64,84.12
13605,80.53,84.86
13613,80.47,84.73
13620,80.38,83.6
13627,80.5,82.58
13634,80.75,82.21
13642,80.86,82.47
13649,80.92,83.03
13657,80.8,83.18
13664,80.78,83.13
13671,80.68,82.94
13679,80.81,83
13686,80.84,83.33
13693,80.79,83.64
13701,80.73,83.5
13709,80.54,83.5
13716,80.68,83.35
13723,80.83,83.22
13730,80.9,83.16
13737,80.67,83.14
13746,80.61,83.22
13753,80.77,83.22
13760,80.8,83.22
13767,80.81,83.38
13774,80.67,83.52
13783,80.68,83.56
13790,80.65,83.41
13797,80.62,83.34
13804,81.02,82.97
13812,81.01,83
13819,80.53,83.13
13827,80.53,83.37
13834,80.32,83.78
13841,80.4,83.94
13849,80.68,84.17
13856,80.44,84.11
13863,80.43,83.56
13871,80.38,83.24
13878,80.53,83.32
13886,80.73,83.47
13893,80.52,83.7
13900,80.85,83.66
13907,80.63,83.49
13915,80.51,83.41
13923,80.83,83.34
13930,80.81,83.4
13937,80.72,83.45
13944,80.43,83.7
13953,80.26,83.76
13960,80.31,83.72
13967,80.27,83.79
13974,80.32,83.9
13981,80.41,83.95
13989,80.37,83.94
13997,80.23,84.01
14004,80.26,83.69
14011,80.38,83.61
14018,80.4,83.53
14026,80.33,83.45
14033,80.6,83.47
14041,80.29,83.39
14048,80.47,83.35
14055,80.5,83.4
14063,80.76,83.35
14070,80.7,83.35
14077,80.66,83.52
14085,80.6,83.68
14092,80.41,83.62
14100,80.26,83.78
14107,80.36,83.83
14114,80.6,83.93
14121,80.48,83.75
14130,80.25,83.5
14137,80.19,83.4
14144,80.11,84.02
14151,80.42,84.79
14158,80.35,84.93
14167,80.48,84.5
14174,80.59,83.86
14181,80.52,83.12
14188,80.52,82.5
14195,80.38,82.51
14203,80.15,83.3
14211,79.95,84.55
14218,80,85.56
14225,80.11,85.98
14232,80.31,85.72
14240,80.38,84.45
14247,80.39,83.52
14255,80.42,83.02
14262,80.64,83.31
14270,80.62,83.7
14277,80.67,84.02
14284,80.66,84.17
14291,80.82,84.22
14299,80.56,84.46
14307,80.62,84.51
14314,80.61,84.71
14321,80.32,84.79
14328,80.29,84.74
14336,80.3,84.41
14344,80.3,84.32
14351,80.43,84.26
14358,80.57,84.33
14365,80.5,84.56
14373,80.66,84.41
14381,80.75,84.69
14388,80.83,84.74
14395,80.8,84.92
14402,80.82,84.99
14410,81.05,85.01
14417,81.34,84.69
14425,81.56,83.87
14432,80.75,83.59
14439,80.48,83.79
14447,80.33,84.47
14454,80.26,85.01
14461,80.52,85.02
14469,80.49,84.57
14476,80.35,83.94
14484,80.37,83.43
14491,80.58,83.58
14498,80.62,84.02
14505,80.62,84.25
14514,80.76,83.81
14521,80.69,83.4
14528,80.89,83.08
14535,80.77,83.09
14542,80.91,83.31
14551,80.73,83.25
14558,80.78,83.16
14565,80.69,83
14572,80.5,82.93
14579,80.62,83.18
14587,80.55,83.27
14595,80.64,83.6
14602,80.57,83.67
14609,80.5,83.5
14616,80.42,83.63
14624,80.39,83.46
14631,80.29,83.19
14639,80.4,83.08
14646,80.57,82.97
14654,80.57,83.1
14661,80.65,83.1
14668,80.7,83.25
14675,80.73,83.05
14683,80.74,83.03
14691,80.78,83.08
14698,80.78,83.21
14705,80.93,83.21
14712,80.97,83.19
14720,81.05,83.16
14728,81.29,83.2
14735,81.05,83.04
14742,80.8,83.02
14749,80.7,82.79
14756,80.62,83.15
14765,80.85,83.52
14772,81.15,83.86
14779,80.9,83.65
14786,81.05,83.38
14793,81.13,82.83
14801,81.41,81.84
14809,81.18,81.16
14816,80.81,81.35
14823,80.66,82.29
14831,80.76,83.63
14838,80.7,84.7
14845,80.77,84.55
14853,80.75,83.57
14860,80.69,82.66
14868,80.73,82.26
14875,80.78,82.18
14882,80.72,82.2
14889,80.84,82.54
14897,80.91,82.48
14905,80.91,82.28
14912,81.12,82.32
14919,81,82.39
14926,80.98,82.4
14935,80.93,82.64
14942,81.04,82.5
14949,81.01,82.52
14956,81.06,82.45
14963,81.06,82.45
14971,81.03,82.35
14979,81.06,82.35
14986,81.01,82.34
14993,81.06,82.36
15000,81.03,82.43
15008,81.07,82.47
15015,80.98,82.63
15023,81.14,82.55
15030,81.2,82.42
15038,81.44,82.12
15045,81.52,81.95
15052,81.1,81.73
15059,81.22,82.04
15067,81.24,82.38
15075,81.08,82.9
15082,81.25,83.06
15089,81.07,82.93
15096,80.98,82.54
15104,80.81,82.2
15112,81.15,82.19
15119,81.34,82.21
15126,81.37,82.37
15133,81.22,82.44
15141,81.13,82.41
15149,81.19,82.18
15156,81.21,82.08
15163,81.15,81.92
15170,80.97,81.81
15178,81.08,81.8
15185,81.01,81.97
15193,80.99,82.13
15200,81.09,82.03
15208,81.13,82.09
15215,81.03,82.17
15222,80.91,82.2
15229,80.85,82.21
15237,80.86,82.3
15245,80.76,82.19
15252,80.84,82.12
15259,80.99,82.08
15266,81.11,81.98
15275,81.18,81.78
15282,81.17,81.96
15289,81.02,81.98
15296,81.15,82.01
15303,81.17,81.84
15311,81.32,81.74
15319,81.28,81.77
15326,81.12,82
15333,81.2,81.98
15340,81.02,82
15348,80.89,82.12
15355,81.01,82.2
15363,80.87,82.11
15370,80.84,81.79
15378,80.76,81.8
15385,80.91,82.23
15392,81.39,82.84
15399,81.36,83.38
15407,81.08,83.29
15415,81.21,82.37
15422,81.32,81.19
15429,81.63,79.98
15436,81.54,79.7
15444,81.15,80.53
15452,80.99,81.8
15459,81.07,83.34
15466,81.09,84.5
15473,81.23,84.78
15481,81.06,83.58
15489,81.03,82.41
15496,81.18,81.74
15503,81.05,81.67
15510,81.07,81.89
15518,80.96,81.99
15525,81.09,81.88
15533,81.2,81.84
15540,81.47,81.81
15547,81.54,81.87
15555,81.65,82.07
15562,81.66,82.22
15569,81.44,82.37
15577,81.42,82.4
15585,81.22,82.22
15592,81.07,82.12
15599,81.16,81.93
15606,81.17,81.81
15613,81.2,81.95
15622,81.17,82.05
15629,81.19,82.09
15636,81.11,82.26
15643,81.14,82.25
15651,81.2,82.3
15659,81.12,82.24
15666,81.4,82.1
15673,81.51,81.82
15680,81.12,81.77
15688,80.82,81.76
15695,80.97,82.07
15703,80.89,82.83
15710,80.89,83.15
15717,81.06,83.22
15725,80.99,82.58
15732,80.86,81.93
15739,80.93,82.1
15747,80.88,82.49
15754,80.96,82.76
15762,80.89,82.81
15769,80.78,82.43
15776,80.79,82.17
15783,80.81,81.99
15792,80.95,82.06
15799,81,82.12
15806,80.91,82.39
15813,80.78,82.59
15820,80.85,82.68
15828,80.6,82.75
15836,80.67,82.79
15843,80.57,82.86
15850,80.58,82.8
15857,80.45,83
15865,80.65,83.06
15873,80.88,82.87
15880,80.83,82.87
15887,80.97,82.61
15895,80.7,82.55
15902,80.81,82.31
15909,80.88,82.38
15917,80.67,82.35
15924,80.76,82.31
15932,80.89,82.24
15939,80.98,82.23
15946,80.84,82.37
15953,80.67,82.5
15961,80.43,82.64
15969,80.37,82.7
15976,80.32,82.73
15983,80.42,82.81
15990,80.26,82.58
15998,80.12,82.35
16006,80.16,82.13
16013,80.16,82.43
16020,80.37,83.2
16027,80.44,83.65
16035,80.17,83.66
16043,80.35,83.06
16050,80.74,82.17
16057,81.03,81.41
16064,80.7,81
16072,80,81.39
16079,79.77,82.48
16087,79.82,83.75
16094,80.15,84.72
16101,80.2,85.04
16109,80.05,84.14
16116,80.06,82.81
16123,80.34,82.15
16131,80.51,81.93
16139,80.62,82.52
16146,80.62,82.88
16153,80.5,82.8
16160,80.51,82.83
16167,80.49,82.84
16176,80.58,82.84
16183,80.59,83.12
16190,80.51,83.52
16197,80.64,83.65
16204,80.54,83.53
16212,80.61,83.38
16220,80.36,82.99
16227,80.35,82.85
16234,80.52,82.73
16242,80.63,82.86
16249,80.63,83.02
16257,80.78,83.2
16264,80.79,83.34
16271,80.8,83.43
16279,80.75,83.42
16286,80.74,83.48
16293,80.71,83.16
16301,81.24,82.77
16308,80.9,82.73
16316,80.54,83.08
16323,80.37,83.54
16330,80.24,83.95
16337,80.39,84.34
16346,80.51,84.29
16353,80.49,83.72
16360,80.33,83.39
16367,80.39,83.23
16374,80.63,83.11
16382,80.64,83.31
16390,80.68,83.42
16397,80.65,83.22
16404,80.5,82.95
16411,80.61,82.94
16419,80.88,83.14
16427,80.91,83.18
16434,80.58,83.41
16441,80.5,83.53
16449,80.32,83.41
16456,80.35,83.18
16463,80.26,83.33
16471,80.18,83.47
16478,80.25,83.54
16486,80.39,83.58
16493,80.45,83.37
16500,80.48,83.19
16507,80.62,83.1
16515,80.63,82.91
16523,80.83,82.79
16530,80.83,82.73
16537,80.93,82.78
16544,80.75,82.59
16552,80.66,82.49
16560,80.52,82.29
16567,80.57,82.31
16574,80.58,82.39
16581,80.46,82.52
16589,80.47,82.74
16596,80.48,82.9
16604,80.37,83.01
16611,80.22,82.78
16619,80.2,82.75
16626,80.2,82.64
16633,80.26,83.03
16641,80.54,83.46
16648,80.42,83.2
16656,80.67,82.68
16663,80.74,81.9
16670,80.74,81.44
16677,80.74,80.89
16685,80.43,81.02
16693,80.12,81.55
16700,80.28,82.58
16707,80.22,83.76
16714,80.42,84.45
16721,80.27,84
16730,80.29,82.95
16737,80.25,82.17
16744,80.51,81.67
16751,80.5,81.98
16759,80.51,82.21
16766,80.64,82.17
16774,80.83,82.11
16781,80.89,82.02
16788,80.96,82.07
16796,80.99,82.29
16803,80.95,82.33
16811,80.94,82.41
16818,80.92,82.43
16825,80.95,82.51
16833,81.03,82.44
16840,80.91,82.48
16847,81,82.52
16855,80.96,82.65
16863,80.79,82.48
16870,80.79,82.53
16877,80.83,82.73
16884,80.77,82.86
16891,80.97,82.73
16900,81.12,82.48
16907,81.37,82.22
16914,81.28,81.9
16921,80.9,81.74
16929,81.04,81.79
16936,81.11,82.16
16944,80.98,82.73
16951,81.03,82.97
16958,81.15,82.87
16966,81.15,82.21
16973,80.86,81.97
16980,81.15,82.04
16988,81.17,82.15
16995,81.05,82.18
17003,81.26,82.17
17010,81.31,82.04
17017,81.33,82
17025,81.23,82.03
17032,81.24,81.93
17040,81.22,81.89
17047,81.25,82.05
17054,81.16,82.06
17061,81.02,82.28
17070,81.11,82.39
17077,81.28,82.41
17084,81.27,82.48
17091,81.33,82.64
17098,81.35,82.75
17106,81.26,82.59
17114,81.21,82.54
17121,81.23,82.5
17128,81.36,82.28
17135,81.33,82.43
17143,81.29,82.38
17150,81.33,82.34
17158,81.5,82.36
17165,81.5,82.31
17173,81.42,82.24
17180,81.54,82.31
17187,81.52,82.24
17195,81.55,82.23
17202,81.65,82.03
17210,81.39,82.16
17217,81.42,82.32
17224,81.37,82.28
17231,81.41,82.26
17240,81.39,82.1
17247,81.11,82.09
17254,80.75,82.05
17261,81.13,82.2
17268,81.72,82.5
17276,81.67,83.12
17284,81.09,83.12
17291,81.29,82.69
17298,81.48,81.92
17306,81.77,80.75
17313,81.78,80.03
17320,81.27,80.44
17328,80.97,81.35
17335,80.86,82.71
17343,80.97,84.06
17350,81.07,84.33
17357,81.09,83.35
17364,80.92,82.32
17372,81.07,81.51
17380,81.27,81.58
17387,81.21,81.85
17394,81.23,81.97
17401,81.33,81.9
17410,81.32,81.9
17417,81.32,81.91
17424,81.48,81.98
17431,81.34,81.96
17438,81.34,81.99
17446,81.28,82.29
17454,81.16,82.24
17461,81.14,82.26
17468,81.25,81.95
17476,81.28,81.99
17483,81.25,82.01
17490,81.14,82
17498,81.05,81.98
17505,81.23,82.01
17513,81.19,81.96
17520,81.05,81.88
17527,81.09,82.1
17534,81.07,82.04
17542,81.12,81.91
17550,81.42,81.53
17557,81.3,81.54
17564,80.89,81.65
17571,80.95,81.92
17579,80.83,82.13
17587,80.97,82.68
17594,81.12,79.32
17601,80.97,80.2
17608,80.68,80.59
17616,80.68,80.87
17624,80.81,81.28
17631,80.88,82.06
17638,80.89,82.35
17645,80.77,82.18
17653,80.97,81.93
17660,81.14,81.59
17668,80.96,81.57
17675,80.8,81.95
17682,80.8,82.3
17690,80.63,82.36
17697,80.7,82.37
17704,80.59,82.32
17712,80.58,82.43
17720,80.85,82.42
17727,80.85,82.48
17734,80.6,82.73
17741,80.36,82.85
17748,80.29,82.78
17757,80.34,82.76
17764,80.43,82.56
17771,80.62,82.49
17778,80.49,82.59
17786,80.66,82.5
17794,80.72,82.37
17801,80.67,82.39
17808,80.74,82.43
17815,80.66,82.46
17823,80.56,82.43
17830,80.67,82.55
17838,80.75,82.65
17845,80.62,82.85
17852,80.56,82.94
17860,80.46,82.73
17867,80.31,82.34
17874,80.36,82.01
17882,80.47,82.14
17890,80.47,82.51
17897,80.83,83.25
17904,80.85,83.6
17911,80.54,83.29
17918,80.73,82.42
17927,81.06,81.38
17934,80.96,80.97
17941,80.43,81.15
17948,80.07,81.95
17956,80.22,83
17964,80.16,83.96
17971,80.38,84.52
17978,80.22,84.22
17985,80.08,83.22
17993,80.26,82.41
18000,80.5,82.11
18008,80.56,82.4
18015,80.55,82.75
18022,80.64,82.84
18030,80.55,82.55
18037,80.78,82.47
18044,80.67,82.62
18052,80.79,82.69
18060,80.47,83.01
18067,80.47,83.19
18074,80.52,83.15
18081,80.45,83.1
18088,80.58,83
18097,80.73,82.82
18104,80.57,82.8
18111,80.54,82.84
18118,80.69,82.99
18125,80.85,82.89
18134,80.62,83.06
18141,80.6,83.24
18148,80.49,83.33
18155,80.63,83.29
18163,80.72,82.9
18170,81.29,82.49
18178,81.07,82.47
18185,80.5,82.87
18192,80.45,83.36
18200,80.42,83.9
18207,80.57,84.09
18214,80.67,84.17
18222,80.46,83.71
18229,80.44,83.18
18237,80.34,83.11
18244,80.44,83.35
18251,80.49,83.46
18258,80.51,83.54
18267,80.32,83.45
18274,80.25,83.17
18281,80.38,83.23
18288,80.5,83.33
18295,80.42,83.45
18304,80.35,83.68
18311,80.23,83.76
18318,80.28,83.65
18325,80.27,83.57
18332,80.37,83.63
18340,80.19,83.93
18348,80.29,84.11
18355,80.26,84.23
18362,80.28,84.18
18370,80.38,84.06
18377,80.54,83.98
18384,80.51,83.86
18392,80.5,83.87
18399,80.47,83.57
18407,80.68,83.51
18414,80.74,83.39
18421,80.65,83.51
18428,80.62,83.64
18436,80.57,83.61
18444,80.62,83.67
18451,80.76,83.8
18458,80.7,83.95
18465,80.76,83.81
18472,80.77,83.54
18481,80.66,83.27
18488,80.74,82.85
18495,80.68,82.8
18502,80.66,83.19
18510,80.96,83.64
18518,80.67,83.82
18525,80.9,83.62
18532,80.94,83.44
18539,80.65,83.25
18547,80.74,83.09
18554,80.49,83.12
18562,80.2,83.43
18569,80.21,84.08
18576,80.36,85.09
18584,80.51,85.83
18591,80.76,85.4
18598,80.73,83.94
18606,80.51,82.28
18613,80.78,81.32
18621,80.88,81.32
18628,80.87,82.07
18635,80.67,82.54
18642,80.85,82.71
18651,80.77,82.49
18658,81.05,82.34
18665,81.2,82.35
18672,81.16,82.34
18679,81.2,82.54
18688,81.14,82.46
18695,81.13,82.41
18702,81.05,82.38
18709,81.09,82.11
18717,80.97,81.99
18724,81.04,82.1
18732,80.95,82.11
18739,80.96,82.04
18746,80.92,82.29
18754,80.98,82.46
18761,81.02,82.56
18768,81.19,82.16
18776,81.47,81.77
18784,81.18,81.35
18791,80.82,81.27
18798,80.85,81.5
18805,80.97,81.91
18812,80.93,82.49
18821,81.12,82.53
18828,81.07,81.99
18835,81.14,81.53
18842,80.92,81.18
18850,80.96,81.29
18857,80.82,81.9
18865,80.92,82.13
18872,81.04,82.04
18879,81.02,81.63
18887,81.11,81.58
18894,81.16,81.68
18902,81.1,81.57
18909,81.16,81.7
18916,80.98,81.55
18924,80.89,81.77
18931,80.98,81.77
18938,80.97,81.69
18946,81.02,81.68
18953,81.05,81.77
18961,80.84,81.99
18968,81,82.12
18975,81.05,82.11
18982,80.88,82.06
18991,80.97,82.01
18998,81.07,81.73
19005,80.96,81.74
19012,81.02,81.69
19019,81.15,81.7
19027,80.87,81.71
19035,80.96,81.8
19042,81.07,81.72
19049,81,81.6
19056,81.05,81.64
19064,81.08,81.58
19072,80.87,81.63
19079,80.93,81.78
19086,80.89,81.75
19094,80.95,81.9
19101,80.91,81.84
19108,80.73,81.45
19116,80.68,81.31
19123,80.78,81.35
19131,80.89,81.66
19138,81.36,82.24
19145,81.46,82.6
19152,81.06,82.49
19160,81.03,82.05
19168,80.96,81.06
19175,81.38,79.83
19182,81.25,79.25
19189,81.09,79.8
19196,80.86,81.03
19205,80.9,82.65
19212,80.92,83.74
19219,80.81,83.54
19226,80.79,82.38
19234,80.77,81.18
19241,80.92,80.74
19249,81.04,80.76
19256,81.02,81.11
19263,81.1,81.4
19271,81.02,81.29
19278,81.04,81.16
19286,80.95,81.27
19293,80.94,81.46
19300,81.3,81.63
19308,81.25,81.87
19315,81.18,81.89
19322,81.15,81.76
19330,81.18,81.72
19338,81.07,81.71
19345,81.01,81.57
19352,80.97,81.53
19359,80.91,81.63
19366,80.94,81.56
19375,81.04,81.49
19382,81,81.6
19389,80.87,81.69
19396,80.84,81.56
19403,80.85,81.51
19411,81.2,81.17
19419,81.27,80.95
19426,80.78,80.87
19433,80.77,81.17
19440,80.77,81.49
19448,80.55,81.91
19456,80.71,82.16
19463,80.62,82.02
19470,80.69,81.44
19478,80.6,80.97
19485,80.79,81.03
19492,80.8,81.27
19500,80.74,81.56
19507,80.59,81.83
19515,80.62,81.7
19522,80.6,81.52
19529,80.7,81.41
19536,80.73,81.45
19544,80.77,81.64
19552,80.94,81.74
19559,80.63,81.86
19566,80.57,81.89
19573,80.65,81.82
19581,80.69,81.86
19589,80.66,81.88
19596,80.4,81.89
19603,80.32,82.03
19610,80.46,82.12
19618,80.38,82.11
19625,80.58,82.06
19633,80.38,81.81
19640,80.4,81.72
19647,80.56,81.62
19655,80.69,81.54
19662,80.76,81.7
19670,80.77,81.87
19677,80.78,82.14
19685,80.8,82.04
19692,80.7,82.09
19699,80.69,82.13
19706,80.6,82.26
19714,80.53,82.45
19722,80.55,82.33
19729,80.53,82.14
19736,80.55,81.9
19743,80.3,81.91
19750,80.4,82.39
19759,80.71,82.8
19766,80.93,83.41
19773,80.57,83.27
19780,80.5,82.79
19788,80.84,81.58
19795,81.11,80.96
19803,80.75,80.75
19810,80.3,81.38
19817,80.2,82.43
19825,80.37,83.69
19832,80.47,84.43
19840,80.4,84.56
19847,80.32,83.43
19855,80.4,82.14
19862,80.51,81.6
19869,80.7,81.69
19876,80.69,82.21
19884,80.73,82.58
19892,80.66,82.34
19899,80.79,82.11
19906,80.9,82.07
19913,80.89,82.31
19920,80.86,82.63
19929,80.77,82.82
19936,80.52,82.88
19943,80.59,82.8
19950,80.51,82.79
19957,80.33,82.41
19965,80.45,82.34
19973,80.48,82.26
19980,80.39,82.32
19987,80.39,82.41
19995,80.33,82.44
20002,80.25,82.52
20009,80.17,82.48
20017,80.14,82.47
20024,80.21,82.39
20032,80.79,81.79
20039,80.76,81.41
20046,80.22,81.63
20054,80.01,82.02
20062,79.97,82.85
20069,80.13,83.29
20076,80.41,83.31
20083,80.26,82.99
20090,80.22,82.46
20099,80.13,82.09
20106,80.33,82.27
20113,80.39,82.55
20120,80.4,82.86
20127,80.39,82.89
20135,80.35,82.49
20143,80.28,82.5
20150,80.41,82.66
20157,80.26,82.71
20165,80.39,82.83
20172,80.61,82.78
20179,80.47,82.88
20187,80.52,82.84
20194,80.29,83
20202,80.22,83.08
20209,80.22,83.35
20216,80.16,83.39
20224,80.26,83.26
20231,80.24,83.11
20239,80.28,82.88
20246,80.22,82.84
20253,80.17,82.87
20260,80.19,82.93
20269,80.22,83.01
20276,80.35,83.03
20283,80.32,82.9
20290,80.2,82.96
20297,80.12,83
20305,80.14,83.17
20313,80.27,83.15
20320,80.4,83.26
20327,80.15,83.36
20334,80.17,83.36
20342,80.02,82.95
20349,79.99,83.02
20357,80.03,83.06
20364,79.91,83.77
20372,80.22,84.27
20379,80.42,84.3
20386,80.37,83.81
20393,80.57,83.14
20401,80.54,82.38
20409,80.4,81.86
20416,79.93,81.8
20423,79.85,82.4
20430,80.08,83.64
20438,80.14,84.71
20446,80.36,85.32
20453,80.14,84.6
20460,79.98,83.33
20467,79.99,82.33
20474,80.15,81.74
20483,80.23,82.11
20490,80.47,82.64
20497,80.4,82.76
20504,80.54,82.52
20512,80.44,82.26
20519,80.36,82.16
20527,80.43,82.37
20534,80.29,82.64
20542,80.21,82.67
20549,80.36,82.86
20556,80.32,82.75
20563,80.33,82.59
20571,80.41,82.45
20579,80.33,82.29
20586,80.37,82.14
20593,80.29,82.1
20600,80.34,82.18
20609,80.53,82.44
20616,80.46,82.76
20623,80.56,82.76
20630,80.54,82.45
20637,80.98,81.87
20645,80.84,81.3
20653,80.53,81.12
20660,80.48,81.54
20667,80.68,82.19
20675,80.76,82.91
20682,80.88,82.97
20689,80.76,82.54
20697,80.65,81.81
20704,80.64,81.62
20712,80.81,82.14
20719,80.72,82.71
20726,81.01,83.06
20733,81.09,82.96
20741,81.01,82.55
20749,80.96,82.45
20756,80.96,82.52
20763,80.73,82.67
20770,80.83,82.42
20777,80.95,82.31
20786,81,82
20793,81.08,82.08
20800,81.03,82.3
20807,80.97,82.38
20814,80.91,82.26
20823,80.92,82.25
20830,80.83,82.36
20837,80.76,82.31
20844,80.8,82.14
20852,80.87,81.93
20859,80.9,81.78
20867,80.86,81.58
20874,81.04,81.63
20881,81.01,81.58
20889,80.91,81.58
20896,80.88,81.62
20903,81.02,81.59
20911,81.03,81.56
20918,81.08,81.58
20926,81.2,81.65
20933,80.98,81.65
20940,80.94,81.78
20947,81.12,81.94
20955,80.89,81.92
20963,80.85,81.78
20970,80.89,81.57
20977,81.11,81.55
20984,81.31,82.07
20993,81.72,82.69
21000,81.28,82.76
21007,81.1,82.42
21014,81.15,81.6
21021,81.18,80.34
21029,81.35,79.41
21037,81.09,79.26
21044,80.99,80.13
21051,80.96,81.61
21058,81.03,83.17
21066,81.12,83.9
21073,81.15,83.21
21081,81.02,82.14
21088,81,81.1
21096,81.1,80.72
21103,81.25,80.94
21110,81.32,81.13
21117,81.24,81.36
21125,81.39,81.26
21133,81.42,81.31
21140,81.51,81.32
21147,81.39,81.56
21154,81.35,81.55
21161,81.25,81.57
21170,81.41,81.49
21177,81.35,81.57
21184,81.47,81.43
21191,81.45,81.42
21199,81.38,81.25
21207,81.31,81.51
21214,81.36,81.46
21221,81.25,81.5
21228,81.25,81.67
21236,81.11,81.59
21243,81.08,81.7
21251,81.15,81.4
21258,81.14,81.04
21266,81.2,80.84
21273,80.95,80.66
21280,81.1,80.53
21287,81.07,80.83
21295,81.04,81.35
21303,80.97,81.81
21310,81.06,82.22
21317,80.88,81.85
21324,80.68,81.27
21331,80.99,80.98
21340,81.05,81.1
21347,81.22,81.42
21354,81.16,81.64
21361,81.29,81.64
21369,81.38,81.38
21377,81.28,81.25
21384,81.22,81.08
21391,81.17,81.23
21398,81.17,81.48
21406,81.1,81.76
21413,81.05,81.84
21421,81.05,81.79
21428,80.88,81.82
21435,80.81,81.85
21443,80.79,81.76
21450,80.89,81.92
21457,80.93,82.19
21465,80.95,82.32
21473,80.86,82.36
21480,80.99,82.04
21487,81.15,81.98
21494,81.09,81.87
21501,81.04,81.98
21510,81.14,81.98
21517,80.97,82.05
21524,80.96,82.06
21531,81.06,81.92
21538,80.95,82.02
21547,81.03,82.28
21554,80.87,82.29
21561,80.69,82.46
21568,80.76,82.37
21576,80.81,82.26
21583,80.73,82.04
21591,80.7,81.96
21598,80.75,82.57
21605,81.16,83.21
21613,81.16,83.62
21620,80.95,83.44
21627,80.78,82.64
21635,80.96,81.43
21643,81.46,80.62
21650,80.96,80.7
21657,80.56,81.46
21664,80.49,82.67
21671,80.56,83.94
21680,80.77,84.75
21687,80.68,84.44
21694,80.72,83.23
21701,80.84,81.95
21708,80.94,81.29
21716,81,81.5
21724,81.01,82.29
21731,80.96,82.74
21738,80.96,82.5
21745,81.03,82.26
21753,81.04,82.31
21761,81.05,82.34
21768,81.14,82.56
21775,81.13,82.54
21783,81.15,82.6
21790,81.17,82.35
21797,81.03,82.02
21805,81.11,81.93
21812,81.11,81.9
21820,81.07,82.01
21827,81.1,81.87
21834,80.98,82.05
21841,80.83,82.17
21849,80.97,82.16
21857,80.89,82.1
21864,81.03,82.16
21871,81.17,82.13
21878,81.25,81.73
21886,81.09,81.49
21894,80.66,81.55
21901,80.9,81.8
21908,80.94,82.05
21915,80.78,82.33
21923,80.91,82.25
21931,80.9,82.17
21938,80.67,81.64
21945,80.69,81.22
21953,81.02,81.24
21960,81.08,81.58
21967,81.11,81.81
21975,80.96,81.9
21982,81.11,81.83
21990,81.12,81.66
21997,81.1,81.54
22004,81.22,81.58
22011,81.44,81.66
22020,81.17,81.77
22027,81.1,81.74
22034,81.18,81.82
22041,81.09,81.79
22048,81.04,81.71
22056,80.9,81.88
22064,80.87,82.02
22071,80.87,82.09
22078,80.98,82.11
22085,80.99,81.96
22093,81.09,81.82
22100,81.02,81.68
22108,81.1,81.63
22115,81.07,81.59
22123,81.02,81.67
22130,81.13,81.59
22137,81.08,81.72
22145,80.91,81.67
22152,80.76,81.48
22160,80.93,81.55
22167,80.82,81.6
22174,80.69,81.65
22181,80.92,81.68
22189,80.97,81.69
22197,81,81.6
22204,80.98,81.58
22211,80.75,81.68
22218,80.91,81.92
22226,81.27,82.35
22234,81.52,82.88
22241,80.98,83
22248,80.66,82.57
22255,80.68,81.77
22263,80.98,80.76
22270,81.19,80.16
22278,80.99,80.44
22285,80.53,81.74
22292,80.74,83.12
22300,80.85,84.32
22307,80.85,84.69
22315,80.64,83.92
22322,80.74,82.7
22330,80.66,81.53
22337,80.75,81.3
22344,80.81,81.63
22351,80.98,82.09
22359,81.07,82.26
22367,81.16,81.94
22374,81.37,81.87
22381,81.4,81.84
22388,81.31,82.27
22395,81.25,82.57
22404,81.27,82.71
22411,81.27,82.7
22418,81.34,82.64
22425,81.17,82.34
22433,81.24,82.13
22440,81,82.17
22448,81.08,82.13
22455,80.99,82.35
22462,81.07,82.52
22470,81.07,82.55
22477,81.03,82.61
22484,81.07,82.73
22492,81.09,82.56
22500,81.44,82.28
22507,81.49,81.82
22514,80.96,81.7
22521,80.78,82.03
22529,80.72,82.43
22537,80.79,82.88
22544,80.91,83.47
22551,80.77,83.41
22558,80.69,82.75
22565,80.73,82.2
22574,80.82,82.04
22581,81.01,82.36
22588,80.93,82.67
22595,81.04,82.92
22603,80.92,82.82
22610,80.77,82.51
22618,80.73,82.29
22625,80.9,82.46
22632,80.84,82.52
22640,80.89,82.72
22647,80.75,82.75
22654,80.68,82.84
22662,80.76,82.75
22669,80.82,82.75
22677,80.58,82.88
22684,80.51,82.97
22691,80.68,83
22699,80.76,83.06
22707,80.68,82.96
22714,80.78,82.81
22721,80.9,82.79
22728,80.85,82.79
22735,80.76,82.75
22744,80.79,82.56
22751,80.86,82.45
22758,80.86,82.6
22765,80.95,82.82
22773,80.75,82.94
22780,80.65,83.25
22788,80.61,83.27
22795,80.6,83.36
22802,80.57,83.34
22810,80.47,83.32
22817,80.55,83.37
22824,80.65,83.46
22832,80.72,83.27
22839,80.43,83.32
22847,80.22,83.68
22854,80.56,84.17
22861,80.76,84.51
22868,80.64,84.19
22877,80.63,83.62
22884,80.84,82.91
22891,80.77,81.94
22898,80.42,81.57
22905,79.95,82.3
22914,80.15,83.48
22921,80.34,84.82
22928,80.45,85.63
22935,80.44,85.26
22942,80.34,84.15
22950,80.32,82.95
22958,80.54,82.58
22965,80.5,82.82
22972,80.66,83.27
22979,80.52,83.73
22987,80.72,83.76
22994,80.83,83.79
23002,80.81,84
23009,80.84,84.24
23016,80.88,84.39
23024,80.75,84.52
23031,80.71,84.42
23038,80.68,84.24
23046,80.59,84.11
23054,80.69,84.02
23061,81,84.02
23068,80.89,84.09
23075,80.73,84.08
23083,80.84,84.26
23091,80.87,84.57
23098,80.88,84.71
23105,80.96,84.91
23112,80.86,84.63
23119,81.17,83.92
23128,81.34,83.59
23135,80.78,83.19
23142,80.39,83.43
23149,80.47,84.09
23156,80.56,84.48
23164,80.77,84.48
23172,80.7,84.25
23179,80.66,83.59
23186,80.65,83.06
23194,80.94,83.32
23201,81.03,83.98
23208,81.06,84.12
23216,80.9,83.96
23223,80.98,83.46
23231,80.94,83.31
23238,81.03,83.34
23245,81.15,83.24
23252,81.1,83.35
23260,81.05,83.47
23268,81.08,83.5
23275,81,83.45
23282,80.74,83.49
23289,80.67,83.77
23297,80.67,83.92
23305,80.71,84.02
23312,80.55,83.95
23319,80.7,83.83
23326,80.53,83.64
23333,80.65,83.45
23342,80.67,83.21
23349,80.78,83.1
23356,80.63,83.12
23363,80.81,83.2
23371,80.84,83.35
23378,80.74,83.39
23386,80.82,83.25
23393,80.92,83.28
23400,81.01,83.24
23408,80.96,83.45
23415,80.84,83.52
23422,80.93,83.38
23430,81.15,83.23
23437,81.04,83.31
23445,80.94,79.75
23452,80.92,81.5
23459,80.84,82.72
23467,81.07,83.58
23474,81.21,83.73
23482,81.14,83.45
23489,81.09,82.93
23496,81.18,82.54
23503,81.12,81.78
23512,81.17,81.95
23519,80.93,82.66
23526,80.85,83.97
23533,81,85.09
23540,80.98,85.64
23548,81.22,84.97
23556,81.22,83.88
23563,81.2,82.65
23570,81.39,82.36
23577,81.49,82.77
23585,81.35,83.03
23592,81.5,83.2
23600,81.41,83.11
23607,81.47,82.99
23614,81.53,82.86
23622,81.61,82.9
23629,81.64,83.11
23636,81.57,83.1
23644,81.33,83.09
23652,81.31,82.95
23659,81.29,82.76
23666,81.31,82.72
23673,81.2,82.69
23681,81.24,82.63
23689,81.24,82.54
23696,81.13,82.51
23703,81.3,82.53
23710,81.21,82.72
23717,81.17,82.79
23726,81.31,82.61
23733,81.47,82.2
23740,81.16,81.79
23747,81,81.72
23755,81.25,82.11
23762,81.27,82.62
23770,81.34,82.99
23777,81.23,83.1
23784,81.33,82.81
23792,81.11,82.27
23799,81.02,82.12
23806,81.31,82.36
23814,81.5,82.64
23821,81.61,82.75
23829,81.56,82.64
23836,81.44,82.36
23843,81.47,82.38
23851,81.73,82.29
23858,81.67,82.17
23866,81.51,82.26
23873,81.58,82.28
23880,81.4,82.49
23887,81.37,82.42
23896,81.62,82.57
23903,81.59,82.7
23910,81.49,82.66
23917,81.54,82.65
23924,81.59,82.66
23932,81.58,82.79
23940,81.52,82.8
23947,81.62,82.5
23954,81.58,82.38
23962,81.68,82.37
23969,81.76,82.3
23976,81.73,82.33
23984,81.65,82.36
23991,81.53,82.4
23999,81.68,82.54
24006,81.7,82.47
24013,81.69,82.53
24020,81.55,82.63
24029,81.59,82.75
24036,81.59,82.84
24043,81.65,82.88
24050,81.52,82.94
24057,81.57,82.69
24066,81.42,82.64
24073,81.35,82.51
24080,81.42,82.67
24087,81.86,83.22
24095,82.15,83.79
24102,81.5,83.72
24110,81.48,83.44
24117,81.4,82.4
24124,81.68,81.31
24132,81.73,80.43
24139,81.49,80.79
24146,81.38,81.89
24154,81.3,83.36
24161,81.39,84.52
24169,81.52,84.78
24176,81.49,83.76
24183,81.49,82.91
24190,81.56,82.23
24199,81.53,81.98
24206,81.49,82
24213,81.53,81.92
24220,81.48,82.01
24227,81.53,81.97
24236,81.5,82.29
24243,81.61,82.32
24250,81.64,82.35
24257,81.43,82.57
24265,81.6,82.73
24272,81.52,82.71
24280,81.44,82.86
24287,81.58,82.91
24294,81.41,83.07
24302,81.51,83.18
24309,81.64,83.1
24316,81.73,83.09
24324,81.81,82.85
24331,81.82,83.04
24339,81.68,82.87
24346,81.71,83.2
24353,81.62,83.1
24360,81.8,82.67
24368,81.94,82.51
24376,81.56,82.41
24383,81.53,82.47
24390,81.32,82.88
24397,81.37,83.23
24406,81.45,83.52
24413,81.29,83.32
24420,81.22,82.73
24427,81.16,82.09
24434,81.31,81.85
24442,81.42,82.26
24450,81.49,82.53
24457,81.6,82.61
24464,81.48,82.62
24472,81.27,82.52
24479,81.2,82.4
24486,81.15,82.41
24494,81.21,82.34
24501,81.02,82.46
24509,80.95,82.43
24516,81.01,82.7
24523,80.92,82.72
24530,80.8,82.74
24538,80.64,82.94
24546,80.72,83.03
24553,80.65,82.96
24560,80.75,82.86
24567,80.96,82.75
24576,80.91,82.6
24583,81.05,82.49
24590,81.09,82.42
24597,81.13,82.4
24604,81.08,82.53
24612,81.09,82.77
24620,81.11,82.8
24627,81.18,82.74
24634,81.07,82.66
24641,81.09,82.83
24649,81.08,82.86
24656,81.01,82.75
24664,80.78,82.85
24671,80.86,82.92
24678,81.1,83.06
24686,81.05,82.76
24693,80.83,82.39
24700,80.66,82.49
24708,80.78,82.89
24716,80.96,83.5
24723,80.83,83.67
24730,80.82,83.25
24737,81.24,82.32
24744,81.11,81.4
24753,80.96,80.86
24760,80.33,81.34
24767,80.31,82.36
24774,80.28,83.87
24781,80.36,84.76
24790,80.43,84.93
24797,80.57,83.95
24804,80.59,82.69
24811,80.64,82.04
24819,80.81,81.94
24826,80.8,82.41
24834,80.92,82.75
24841,80.93,82.82
24848,80.96,82.8
24856,80.97,82.78
24863,80.85,83.05
24870,80.75,83.52
24878,80.61,83.63
24885,80.54,83.53
24893,80.49,83.46
24900,80.62,83.27
24907,80.75,83.13
24914,80.89,83.04
24923,80.83,82.96
24930,80.88,82.77
24937,80.88,82.81
24944,80.89,82.97
24951,80.74,83.07
24960,80.67,83.29
24967,80.69,83.18
24974,80.6,83.11
24981,80.94,82.54
24988,81.11,82.13
24996,80.69,82.33
25004,80.37,82.88
25011,80.28,83.64
25018,80.43,83.84
25026,80.71,83.91
25033,80.78,83.48
25040,80.52,82.84
25048,80.44,82.64
25055,80.59,83.04
25063,80.58,83.22
25070,80.58,83.41
25077,80.54,83.18
25084,80.6,82.91
25092,80.66,82.94
25100,80.66,82.97
25107,80.64,83.02
25114,80.69,83.18
25121,80.69,83.21
25129,80.69,83.25
25137,80.65,83.17
25144,80.58,83.28
25151,80.49,83.4
25158,80.28,83.51
25166,80.11,83.59
25174,80.1,83.49
25181,80.35,83.32
25188,80.49,83.3
25195,80.52,83.27
25203,80.41,83.29
25210,80.48,83.39
25218,80.5,83.58
25225,80.42,83.56
25232,80.37,83.48
25240,80.47,83.59
25247,80.39,83.69
25254,80.24,83.79
25262,80.3,83.84
25270,80.24,83.74
25277,80.18,83.63
25284,80.12,83.56
25291,80.3,83.37
25298,80.26,83.33
25307,80.46,83.34
25314,80.28,83.99
25321,80.33,84.4
25328,80.38,84.43
25335,80.58,83.7
25344,80.77,83.3
25351,80.42,82.83
25358,80.49,82.22
25365,80.3,81.94
25372,80.04,82.52
25380,80.15,83.87
25388,80.27,85.14
25395,80.23,85.73
25402,80.43,85.03
25410,80.26,83.75
25417,80.34,82.54
25424,80.53,82.29
25432,80.84,82.71
25439,80.74,83.29
25447,80.64,83.34
25454,80.66,83.09
25461,80.65,82.83
25468,80.71,82.59
25476,80.64,82.78
25484,80.65,82.97
25491,80.55,82.86
25498,80.61,82.83
25505,80.48,82.62
25512,80.5,82.3
25521,80.43,82.11
25528,80.45,82.21
25535,80.45,82.29
25542,80.43,82.38
25550,80.43,82.5
25558,80.53,82.82
25565,80.41,83.07
25572,80.36,83.12
25579,80.51,82.72
25587,80.78,82.04
25594,80.68,81.22
25602,80.31,80.8
25609,80.27,81.01
25616,80.29,81.48
25624,80.36,81.94
25631,80.31,82.42
25638,80.3,81.69
25646,80.16,81.09
25654,80.07,80.89
25661,80.14,81.13
25668,80.41,81.64
25675,80.5,81.84
25682,80.49,81.56
25691,80.54,81.27
25698,80.39,81.19
25705,80.43,81.34
25712,80.21,81.26
25719,80.21,81.21
25728,80.38,81.34
25735,80.21,81.37
25742,80.37,81.27
25749,80.5,81.37
25757,80.58,81.33
25764,80.63,81.37
25772,80.63,81.48
25779,80.61,81.35
25786,80.54,81.37
25794,80.65,81.37
25801,80.76,81.31
25808,80.61,81.29
25816,80.75,81.12
25824,80.75,81.2
25831,80.73,81.19
25838,80.72,81.21
25845,80.77,81.2
25852,80.76,81.18
25861,80.71,81.13
25868,80.8,81.13
25875,80.67,81.02
25882,80.71,80.99
25889,80.83,81.1
25897,80.78,81.18
25905,80.63,81.05
25912,80.62,80.89
25919,80.36,80.78
25927,80.39,80.93
25934,80.48,81.31
25942,80.89,81.74
25949,80.71,82.09
25956,80.53,82.04
25964,80.6,81.3
25971,80.78,80.12
25978,81.08,78.98
25986,80.9,78.45
25993,80.7,79.08
26001,80.73,80.58
26008,80.7,82.11
26015,80.72,83.51
26022,80.72,80.06
26030,80.8,80.6
26038,80.78,80.19
26045,80.83,80.2
26052,80.86,80.31
26059,80.95,80.75
26066,80.98,81.23
26075,80.95,81.02
26082,80.96,80.97
26089,81.2,80.84
26096,81.13,81
26104,81.2,81.15
26112,81.24,81.34
26119,81.28,81.4
26126,81.23,81.33
26133,81.09,81.32
26141,81.1,81.21
26148,80.92,81.05
26156,81.05,81.02
26163,81.17,80.9
26170,81.04,80.89
26178,81.09,80.94
26185,81.12,80.94
26192,81.21,81.1
26200,81.21,81.08
26208,81.21,80.94
26215,81.52,80.51
26222,81.43,80.38
26229,81.03,80.5
26236,80.93,80.63
26245,80.95,80.98
26252,80.92,81.44
26259,80.95,81.92
26266,80.94,81.59
26273,80.73,80.89
26281,80.67,80.29
26289,80.87,80.44
26296,80.98,80.73
26303,80.99,80.93
26311,81.07,80.91
26318,81.14,80.78
26326,81.16,80.44
26333,81.17,80.36
26340,81.05,80.54
26348,81.04,80.68
26355,80.91,80.85
26362,80.75,80.85
26370,80.69,81.01
26377,80.6,81.06
26385,80.64,80.97
26392,80.77,80.96
26399,80.75,81.09
26406,80.77,81.05
26415,80.61,80.93
26422,80.53,80.91
26429,80.6,80.85
26436,80.71,80.7
26443,80.71,80.73
26451,80.8,80.83
26459,80.87,80.79
26466,80.74,80.77
26473,80.62,80.83
26480,80.64,80.84
26488,80.49,80.86
26496,80.56,80.91
26503,80.54,80.95
26510,80.58,81.01
26518,80.56,81.19
26525,80.53,80.99
26532,80.42,80.64
26540,80.37,80.63
26547,80.44,80.69
26555,80.84,81.4
26562,81.08,82.09
26569,80.52,82.27
26576,80.45,81.86
26584,80.59,80.94
26592,81,79.69
26599,80.96,78.83
26606,80.46,79.3
26613,80.21,80.68
26621,80.29,82.1
26629,80.51,83.25
26636,80.62,83.64
26643,80.55,82.66
26650,80.43,81.55
26658,80.36,80.77
26665,80.59,80.61
26673,80.58,80.79
26680,80.73,81.03
26688,80.75,81.05
26695,80.67,80.81
26702,80.76,80.68
26710,80.81,81.03
26717,80.85,81.43
26725,80.77,81.82
26732,80.67,81.78
26739,80.63,81.7
26746,80.74,81.7
26754,80.69,81.35
26762,80.71,81.39
26769,80.58,81.46
26776,80.82,81.57
26783,80.49,81.77
26790,80.45,81.85
26799,80.39,81.85
26806,80.51,81.67
26813,80.62,81.53
26820,80.71,81.46
26828,80.93,81.17
26835,81.2,81.21
26843,80.72,81.28
26850,80.44,81.46
26857,80.72,81.85
26865,80.74,82.08
26872,80.77,82.5
26880,80.55,82.53
26887,80.5,81.88
26894,80.47,81.33
26902,80.4,81.11
26909,80.56,81.48
26916,80.55,81.94
26924,80.55,82.23
26932,80.64,82.17
26939,80.52,82.09
26946,80.8,81.94
26953,80.74,81.95
26960,80.7,81.99
26969,80.87,81.96
26976,80.63,82.07
26983,80.33,82.17
26990,80.3,82.18
26998,80.33,82.35
27005,80.24,82.7
27013,80.24,82.77
27020,80.43,82.68
27027,80.49,82.45
27035,80.4,82.18
27042,80.35,82.19
27049,80.28,82.37
27057,80.47,82.29
27064,80.53,82.22
27072,80.59,82.04
27079,80.59,82.06
27086,80.56,82.11
27094,80.5,82.18
27102,80.62,82.2
27109,80.5,82.17
27116,80.48,82.31
27123,80.27,82.28
27130,80.24,82.26
27139,80.13,82.16
27146,79.88,81.99
27153,79.92,81.76
27160,79.99,82.29
27167,80.18,82.8
27175,80.14,83.01
27183,79.83,82.59
27190,80.1,82.02
27197,80.51,81.15
27205,80.43,80.66
27212,79.99,80.84
27219,79.63,81.64
27227,79.81,82.73
27234,79.87,83.62
27242,80.07,84.18
27249,80.24,83.51
27256,80.24,82.28
27264,80.07,81.33
27272,80.44,81.07
27279,80.37,81.35
27286,80.33,81.83
27293,80.2,82.25
27300,80.18,82.29
27309,80.36,82.47
27316,80.37,82.55
27323,80.23,82.94
27330,80.25,83.25
27338,80.24,83.43
27345,80.22,83.29
27353,80.17,83.23
27360,80.2,83.06
27367,80.3,83.01
27375,80.31,83.16
27382,80.18,83.37
27389,80.19,83.6
27397,80.12,83.74
27404,80.31,83.9
27412,80.33,83.86
27419,80.44,83.71
27426,80.48,83.77
27433,80.63,83.18
27442,81.16,82.49
27449,80.55,82.52
27456,80.24,82.89
27463,80.11,83.63
27470,80.1,84.12
27479,80.2,84.44
27486,80.45,84.01
27493,80.34,83.31
27500,80.2,83.1
27507,80.47,83.4
27515,80.34,83.82
27523,80.31,83.68
27530,80.33,83.4
27537,80.57,83.19
27544,80.46,83.09
27552,80.47,83.18
27559,80.41,83.47
27567,80.41,83.67
27574,80.18,83.51
27581,80.15,83.42
27589,80.02,83.55
27596,80.1,83.58
27603,80.02,83.73
27611,79.89,83.84
27619,79.91,83.87
27626,79.95,83.57
27633,80.1,83.41
27640,80.12,83.42
27648,80.12,83.26
27656,80.16,83.2
27663,80.38,83.21
27670,80.42,83.37
27677,80.28,83.34
27685,80.3,83.39
27693,80.16,83.54
27700,80.06,83.65
27707,80.02,83.6
27714,80.1,83.52
27722,80.11,83.33
27729,80.02,83.05
27737,79.88,82.49
27744,79.84,82.23
27751,79.84,82.22
27759,80.01,82.45
27766,80.32,82.7
27773,80.69,82.72
27781,80.83,82.5
27789,80.41,82.21
27796,80.23,81.75
27803,80.41,81.21
27810,80.37,80.89
27817,80.15,81.45
27826,80.09,82.84
27833,80.12,83.92
27840,80.35,84.34
27847,80.43,83.77
27855,80.27,82.78
27863,80.21,81.96
27870,80.4,81.73
27877,80.48,81.76
27884,80.32,82.02
27892,80.39,82.18
27899,80.32,82.18
27907,80.52,82.19
27914,80.67,82.24
27922,80.55,82.29
27929,80.7,82.55
27936,80.55,82.65
27943,80.52,79.25
27951,80.5,81.01
27959,80.48,81.71
27966,80.48,82.04
27973,80.58,82.09
27980,80.59,82.18
27988,80.5,82.32
27996,80.46,82.23
28003,80.48,82.12
28010,80.5,82.38
28017,80.63,82.42
28025,80.75,82.19
28033,81.03,81.51
28040,80.63,80.87
28047,80.42,80.68
28054,80.51,81.2
28062,80.57,81.96
28069,80.45,82.55
28077,80.89,82.44
28084,80.53,81.94
28092,80.53,81.37
28099,80.35,81.06
28106,80.39,81.34
28113,80.35,81.84
28121,80.6,82.03
28129,80.72,81.86
28136,80.78,81.46
28143,80.75,81.38
28150,80.69,81.48
28157,80.76,81.46
28166,80.63,81.55
28173,80.68,81.79
28180,80.6,81.7
28187,80.48,81.68
28195,80.73,81.84
28203,80.74,81.93
28210,80.91,82.02
28217,81.04,82.07
28224,80.96,82.26
28232,81.09,82.2
28239,81.17,82.15
28247,81.14,82.12
28254,81.17,81.84
28262,81.25,81.69
28269,81.19,81.73
28276,81.35,81.62
28283,81.33,81.47
28291,81.33,81.62
28299,81.34,81.5
28306,81.32,81.66
28313,81.39,81.78
28320,81.33,82.02
28328,81.24,81.92
28336,81.13,82
28343,81.05,81.99
28350,80.95,81.69
28357,80.73,81.77
28365,80.95,81.92
28372,81.54,82.26
28380,81.74,82.64
28387,81.14,83
28394,81.1,82.45
28402,81.07,81.59
28409,81.12,80.33
28417,81.18,79.47
28424,80.95,79.66
28432,80.85,80.77
28439,80.69,82.05
28446,80.75,83.33
28453,80.83,84.08
28461,80.86,83.23
28469,81.04,82.25
28476,81.16,81.5
28483,81.19,81.4
28490,81.14,81.46
28497,81.26,81.53
28506,81.11,81.56
28513,81.31,81.49
28520,81.39,81.39
28527,81.52,81.43
28534,81.54,81.52
28542,81.44,81.5
28550,81.38,81.55
28557,81.32,81.71
28564,81.43,81.69
28572,81.29,81.49
28579,81.33,81.32
28587,81.17,81.15
28594,81.27,81.32
28601,81.36,81.4
28609,81.39,81.35
28616,81.4,81.36
28623,81.3,81.42
28631,81.3,81.43
28639,81.3,81.41
28646,81.31,81.36
28653,81.5,81.13
28660,81.35,80.99
28667,81.08,81.09
28676,81.17,81.35
28683,81.32,81.93
28690,81.02,82.31
28697,81.2,82.38
28704,81.01,81.79
28712,80.93,81.13
28720,80.92,80.87
28727,80.97,81.12
28734,81.03,81.44
28742,80.97,81.57
28749,81.15,81.51
28756,81.13,81.43
28764,81.17,81.28
28771,81.11,81.09
28779,81.2,81.3
28786,81.18,81.48
28793,81.05,81.45
28801,81.12,81.5
28808,81.15,81.6
28816,81.12,81.63
28823,81.04,81.61
28830,80.95,81.68
28837,80.8,81.6
28846,80.6,81.43
28853,80.4,81.41
28860,80.52,81.44
28867,80.61,81.38
28874,80.65,81.36
28882,80.83,81.38
28890,80.88,81.42
28897,80.88,81.61
28904,80.69,81.51
28911,80.69,81.5
28919,80.81,81.35
28926,80.64,81.38
28934,80.62,81.24
28941,80.76,81.16
28949,80.84,81.33
28956,80.61,81.39
28963,80.6,81.53
28971,80.66,81.21
28978,80.58,81.07
28986,80.62,81.12
28993,80.82,81.44
29000,81.12,81.99
29007,80.77,82.48
29016,80.72,82.35
29023,80.71,81.72
29030,80.93,80.59
29037,81.07,79.98
29044,80.58,79.73
29052,80.25,80.26
29060,80.29,81.32
29067,80.25,82.81
29074,80.32,83.54
29082,80.34,83.21
29089,80.36,82.15
29096,80.5,80.97
29104,80.65,80.78
29111,80.81,80.82
29119,80.75,81.24
29126,80.76,81.46
29133,80.75,81.21
29140,80.77,80.97
29149,80.79,80.77
29156,80.64,81.25
29163,80.53,81.47
29170,80.46,81.65
29177,80.43,81.75
29186,80.45,81.61
29193,80.38,81.46
29200,80.33,81.33
29207,80.28,81.23
29215,80.12,81.34
29222,80.1,81.54
29230,80.08,81.71
29237,80.14,81.83
29244,80.42,81.68
29252,80.44,81.5
29259,80.38,81.55
29266,80.47,81.4
29274,80.76,81.19
29281,80.75,81.09
29289,80.4,81.21
29296,80.42,81.47
29303,80.31,81.74
29310,80.1,82.04
29319,80.28,82.48
29326,80.25,82.34
29333,80.15,81.7
29340,80.16,81.03
29347,80.37,81.19
29356,80.44,81.67
29363,80.36,82
29370,80.35,82.11
29377,80.3,81.84
29384,80.29,81.46
29392,80.4,81.41
29400,80.55,81.51
29407,80.37,81.77
29414,80.28,82
29422,80.11,82.11
29429,80.06,82.22
29436,80.1,82.17
29444,80.05,82.32
29451,80.18,82.32
29459,80.24,82.46
29466,80.05,82.44
29473,80.18,82.53
29480,80.15,82.48
29489,80.15,82.3
29496,80.19,82.3
29503,80.23,82.03
29510,80.25,82.15
29517,80.12,82.32
29526,80.07,82.36
29533,80.08,82.27
29540,80.25,82.27
29547,80.18,82.24
29555,80.17,82.33
29562,80.07,82.41
29570,80.05,82.61
29577,80.01,82.55
29584,80.09,82.87
29592,80.11,82.86
29599,79.98,82.64
29606,79.84,82.32
29614,79.75,82.17
29621,79.74,82.41
29629,80.13,83.11
29636,80.24,83.36
29643,80.27,83.23
29650,80.49,82.47
29659,80.51,81.91
29666,80.26,81.17
29673,79.96,81.28
29680,79.63,81.79
29687,79.78,82.78
29696,79.87,83.79
29703,79.92,84.52
29710,79.99,84.28
29717,79.92,83.34
29725,79.86,82.14
29732,79.95,81.7
29740,80.05,82.12
29747,80.11,82.79
29754,80.17,82.97
29762,80.16,82.83
29769,80.22,82.81
29776,80.18,82.69
29784,80.25,82.92
29792,80.11,83.25
29799,80.17,83.31
29806,80.29,83.33
29813,80.26,83.1
29820,80.21,82.96
29829,80.11,82.91
29836,80.14,82.77
29843,80.23,82.81
29850,80.13,82.73
29858,80.2,82.97
29865,80.18,83.01
29873,80.33,82.9
29880,80.26,83.01
29887,80.17,83.04
29895,80.2,83.02
29902,80.54,82.54
29910,80.87,82.03
29917,80.23,82.18
29924,80.22,82.64
29932,79.99,83.44
29939,80.27,83.99
29946,80.19,83.97
29954,80.19,83.45
29962,80.03,82.93
29969,79.98,82.69
29976,80.15,82.89
29983,80.16,83.13
29990,80.15,83.12
29999,80.2,82.84
30006,80.1,82.78
30013,80.04,82.93
30020,80.04,83.21
30027,80.08,83.26
30035,80.06,83.17
30043,80,83.04
30050,80.13,83.07
30057,79.92,83.24
30064,79.87,83.28
30072,79.94,83.56
30080,79.91,83.49
30087,79.94,83.53
30094,79.91,83.57
30102,79.99,83.38
30109,80.09,83.41
30116,80.05,83.33
30124,80.01,83.36
30131,79.97,83.21
30139,80.16,83.24
30146,80.14,83.25
30153,80.08,83.24
30160,80.29,83.12
30168,80.23,83.2
30176,80.08,83.21
30183,80.09,83.35
30190,80.07,83.31
30197,80.03,83.19
30204,80.05,83.21
30213,80.16,83.34
30220,79.91,83.15
30227,79.78,83.06
30234,80.01,82.94
30241,79.84,83.63
30249,80.19,84.55
30257,80.21,84.58
30264,80.59,84.05
30271,80.35,83.49
30279,80.12,82.76
30286,80.26,82.08
30294,80.1,81.95
30301,80.03,82.5
30308,80.19,83.79
30316,80.26,84.88
30323,80.34,85.53
30330,80.29,84.83
30338,80.2,83.61
30345,80.15,82.79
30353,80.17,82.59
30360,80.29,82.84
30367,80.35,83.12
30374,80.42,83.2
30382,80.37,83.01
30390,80.27,82.75
30397,80.28,82.76
30404,80.29,82.8
30411,80.32,83.06
30418,80.21,83.12
30427,80.36,82.88
30434,80.31,82.49
30441,80.31,82.28
30448,80.26,81.92
30456,80.35,81.78
30464,80.41,81.86
30471,80.37,81.89
30478,80.53,82.03
30485,80.36,82.35
30493,80.2,82.39
30500,80.02,82.27
30508,80.26,82.47
30515,80.46,82.3
30522,80.58,81.74
30530,80.27,81.2
30537,79.99,81.42
30544,80.01,81.97
30552,80.07,82.57
30560,80.33,83.06
30567,80.52,83.04
30574,80.29,82.3
30581,80.29,81.83
30588,80.26,81.85
30597,80.42,82.53
30604,80.39,82.75
30611,80.53,82.72
30618,80.5,82.59
30625,80.75,82.28
30633,80.65,82.05
30641,80.64,81.9
30648,80.67,81.94
30655,80.63,81.79
30663,80.68,81.77
30670,80.63,81.78
30678,80.4,81.93
30685,80.47,82.05
30692,80.49,82.13
30700,80.49,82.2
30707,80.57,82.3
30714,80.44,82.35
30722,80.51,82.25
30729,80.39,82.05
30737,80.49,81.94
30744,80.57,81.95
30751,80.52,81.96
30758,80.5,81.92
30766,80.64,81.87
30774,80.65,82
30781,80.58,82.06
30788,80.62,82.14
30795,80.61,82.1
30802,80.91,81.97
30811,81.06,81.83
30818,80.94,81.8
30825,81.14,81.75
30832,81.07,81.85
30840,81.16,82
30848,81.07,81.99
30855,81.18,82.08
30862,80.96,81.79
30869,80.66,81.72
30877,80.85,81.79
30884,81.17,82.2
30892,81.6,82.9
30899,80.94,83.02
30906,80.71,82.78
30914,80.89,81.99
30921,81.05,80.55
30928,81.26,79.59
30936,80.86,79.45
30943,80.62,80.57
30951,80.75,82.06
30958,80.78,83.49
30965,81.06,84.06
30972,80.92,83.37
30981,80.76,82.33
30988,80.97,81.47
30995,81.01,81.11
31002,81.08,81.37
31009,81.06,81.5
31017,81.16,81.52
31025,81.25,81.52
31032,81.25,81.53
31039,81.34,81.46
31046,81.32,81.64
31054,81.2,81.86
31062,81.3,81.96
31069,81.22,81.86
31076,81.23,81.77
31084,81.19,81.59
31091,81.31,81.6
31098,81.33,81.44
31106,81.23,81.48
31113,81.32,81.61
31121,81.34,81.61
31128,81.24,81.62
31135,81.1,81.63
31142,81.08,81.48
31151,81.04,81.56
31158,81.02,81.5
31165,81.14,81.31
31172,81.3,81.15
31179,81.03,80.96
31187,81.15,80.94
31195,81.28,81.18
31202,81.02,81.59
31209,81.19,82.1
31216,81.34,81.78
31224,81.05,81.05
31232,80.85,80.6
31239,80.91,80.96
31246,80.85,81.38
31254,80.85,81.65
31261,81.09,81.48
31268,81.21,81.26
31276,80.97,80.91
31283,81.13,80.96
31291,81.03,80.92
31298,81.11,81.06
31305,81.27,81.28
31312,81.26,81.27
31321,81.05,81.39
31328,81.07,81.64
31335,81.09,81.8
31342,80.98,81.89
31349,80.77,81.88
31357,80.75,81.99
31365,80.79,81.97
31372,80.81,81.99
31379,81.02,82.02
31386,80.93,81.83
31394,80.93,81.7
31401,81.05,81.9
31409,80.94,81.88
31416,80.9,81.94
31424,80.81,82.01
31431,80.86,82.13
31438,81.01,82.07
31446,80.87,82.05
31453,80.89,82.11
31461,80.94,82.12
31468,80.89,82.01
31475,80.9,82.04
31482,80.76,82.23
31490,80.87,82.45
31498,80.8,82.71
31505,80.75,82.54
31512,80.71,82.16
31519,80.66,81.97
31527,80.59,81.97
31535,80.65,82.46
31542,81.13,83.13
31549,80.78,83.33
31556,80.78,82.97
31564,80.69,82.03
31571,81.21,80.96
31579,81.23,80.46
31586,80.68,80.48
31594,80.32,85.16
31601,80.23,84.88
31608,80.3,85
31616,80.53,85.03
31623,80.61,84.09
31631,80.46,82.97
31638,80.49,82.03
31645,80.71,81.75
31652,80.64,81.76
31660,80.65,81.89
31668,80.61,81.95
31675,80.6,81.91
31682,80.59,81.97
31689,80.54,82.13
31697,80.44,82.39
31705,80.55,82.66
31712,80.54,82.87
31719,80.51,82.64
31726,80.5,82.64
31734,80.52,82.52
31741,80.49,82.52
31749,80.57,82.41
31756,80.38,82.33
31763,80.48,82.37
31771,80.51,82.54
31778,80.71,82.58
31785,80.86,82.66
31793,80.87,82.8
31801,80.76,82.65
31808,80.69,82.41
31815,80.79,82.12
31822,81.2,82.13
31830,80.72,82.08
31838,80.5,82.4
31845,80.56,82.65
31852,80.42,83.29
31859,80.42,83.68
31867,80.47,83.55
31875,80.42,82.91
31882,80.53,82.4
31889,80.61,82.47
31896,80.49,82.64
31904,80.56,83.11
31911,80.55,83.02
31919,80.53,82.69
31926,80.55,82.52
31934,80.61,82.44
31941,80.69,82.61
31948,80.81,82.87
31955,80.49,82.97
31963,80.35,83.01
31971,80.43,83.01
31978,80.4,83.07
31985,80.32,83.05
31992,80.39,83.27
32001,80.4,83.3
32008,80.53,83.29
32015,80.39,83.24
32022,80.44,83.16
32029,80.49,83.16
32037,80.41,83.01
32045,80.59,82.99
32052,80.74,82.97
32059,80.62,82.77
32066,80.61,82.98
32074,80.51,83.02
32081,80.64,83.02
32089,80.61,83.02
32096,80.46,82.82
32103,80.52,83.13
32111,80.49,83.22
32118,80.54,83.4
32125,80.54,83.67
32133,80.4,83.94
32141,80.38,84.11
32148,80.3,84.05
32155,80.33,83.63
32162,80.43,83.51
32169,80.29,79.64
32178,80.4,81.66
32185,80.19,82.82
32192,80.48,83.76
32199,80.48,84.27
32206,80.42,83.84
32215,81.02,83.27
32222,80.8,82.7
32229,80.52,82.25
32236,80.01,82.66
32243,79.9,83.78
32251,80.08,84.57
32259,80.1,85.58
32266,80.13,85.68
32273,80.15,84.92
32281,80.1,83.78
32288,80.35,82.85
32295,80.61,82.79
32303,80.59,83.5
32310,80.61,83.82
32318,80.66,83.89
32325,80.72,83.71
32332,80.46,83.74
32339,80.31,83.92
32347,80.32,84.22
32355,80.34,84.17
32362,80.32,84.09
32369,80.31,84.1
32376,80.28,84.02
32385,80.22,83.81
32392,80.4,83.89
32399,80.45,83.89
32406,80.24,83.76
32413,80.15,83.69
32421,80.26,83.92
32429,80.16,84.25
32436,80.18,84.4
32443,80.24,84.19
32451,80.18,84.1
32458,80.26,83.72
32465,81.07,83.26
32473,80.83,83.24
32480,80.18,83.49
32488,80.03,84.2
32495,79.85,85.05
32502,80.15,85.36
32509,80.38,85.19
32517,80.22,84.3
32525,80.22,83.84
32532,80.14,83.89
32539,80.06,84.46
32546,79.98,84.67
32553,80.04,84.65
32562,80.11,84.1
32569,80.11,83.99
32576,80.17,84.03
32583,80.09,84.26
32590,80.07,84.45
32599,80.08,84.44
32606,80.21,84.34
32613,80.17,84.09
32620,80.07,84.13
32627,80.15,84.02
32635,80.21,84
32643,80.34,83.85
32650,80.4,83.74
32657,80.32,83.44
32664,80.33,83.21
32672,80.33,83.07
32679,80.33,82.95
32687,80.42,82.88
32694,80.24,82.94
32702,80.27,82.93
32709,80.29,82.99
32716,80.11,83.1
32723,80.29,83.1
32731,80.23,83.1
32739,80.32,83
32746,80.36,83.13
32753,80.26,83.11
32760,80.24,83.06
32768,80.24,82.86
32776,80.22,82.92
32783,80.38,83.11
32790,80.38,82.82
32797,80.15,82.55
32804,80.07,82.55
32813,80.09,82.9
32820,80.45,83.24
32827,80.6,83.24
32834,80.76,82.72
32842,80.33,82.25
32849,80.33,81.62
32857,80.56,80.99
32864,80.36,80.99
32871,80.39,81.7
32879,80.28,82.78
32886,80.27,83.94
32893,80.48,84.59
32901,80.5,84.04
32908,80.37,83.18
32916,80.51,82.41
32923,80.52,82.19
32930,80.7,82.31
32937,80.87,82.64
32946,80.99,82.74
32953,81.02,82.58
32960,81.11,82.56
32967,80.83,82.4
32974,80.97,82.51
32983,81.03,82.57
32990,81.04,82.48
32997,80.98,82.47
33004,81.05,82.39
33012,81.12,82.43
33019,81.04,82.63
33027,81.05,82.68
33034,80.88,82.61
33041,80.79,82.65
33049,80.85,82.78
33056,80.79,82.81
33063,80.85,82.88
33071,80.8,82.89
33078,80.93,79.38
33086,80.98,80.73
33093,81.02,80.94
33100,80.85,80.92
33107,80.61,81.32
33116,80.72,81.87
33123,80.84,82.53
33130,81.02,82.98
33137,81.16,83.1
33144,81.18,82.33
33153,80.91,81.96
33160,80.76,82.01
33167,80.79,82.4
33174,80.75,82.54
33181,80.94,82.38
33189,81.08,82.11
33197,81.25,82.08
33204,81.08,82.02
33211,81.06,82.04
33219,81.17,81.91
33226,80.95,81.9
33233,80.84,82.08
33241,80.95,82.09
33248,81.11,82.1
33256,81.24,82.22
33263,81.18,82.34
33270,81.22,82.24
33277,81.23,82.53
33285,81.29,82.47
33293,81.22,82.44
33300,81.29,82.39
33307,81.24,82.46
33314,81.21,82.3
33323,81.27,82.28
33330,81.35,82.37
33337,81.4,82.32
33344,81.3,82.33
33351,81.26,82.22
33359,81.23,82.22
33367,81.15,82.32
33374,81.31,82.33
33381,81.37,82.23
33389,81.29,82.17
33396,81.39,82.01
33403,81.37,82.06
33411,81.39,82.1
33418,81.38,82.28
33426,81.41,82.35
33433,81.33,82.45
33440,81.31,82.49
33447,81.34,82.14
33456,81.09,81.99
33463,81.01,82.05
33470,81.55,82.45
33477,81.97,83.13
33484,81.51,83.62
33492,81.37,83.32
33500,81.39,82.55
33507,81.76,81.13
33514,81.65,79.99
33522,81.3,80.2
33529,81.04,81.37
33537,81.07,82.94
33544,81,84.31
33551,80.98,84.99
33559,80.9,84.22
33566,80.96,82.91
33573,81.2,81.87
33581,81.33,81.49
33588,81.27,81.6
33596,81.14,81.87
33603,81.23,81.96
33610,81.39,81.9
33617,81.45,82.18
33626,81.46,82.3
33633,81.4,82.45
33640,81.51,82.62
33647,81.43,82.68
33654,81.41,82.5
33662,81.59,82.47
33670,81.51,82.12
33677,81.5,81.91
33684,81.4,82.02
33691,81.2,82.13
33699,81.3,82.15
33707,81.49,82.21
33714,81.49,82.14
33721,81.45,82.28
33729,81.49,82.28
33736,81.63,82.25
33743,81.53,82.32
33751,81.66,82.3
33758,81.64,82.09
33766,81.22,81.98
33773,81.25,82.11
33780,81.4,82.29
33787,81.08,82.68
33795,81.2,83.04
33803,81.24,82.99
33810,81.06,82.41
33817,81.06,81.75
33824,81.13,81.77
33831,81.15,82.32
33840,81.26,82.76
33847,81.25,82.88
33854,81.4,82.73
33861,81.48,82.35
33869,81.47,82.21
33876,81.36,82.38
33884,81.2,82.24
33891,81.25,82.28
33898,81.2,82.44
33906,81,82.65
33913,81.11,82.67
33921,81.26,82.86
33928,81.27,82.78
33935,81.27,82.91
33943,81.09,82.83
33950,81.08,82.83
33957,81.16,82.85
33965,81.28,82.74
33973,81.39,82.64
33980,81.36,82.72
33987,81.35,82.82
33994,81.37,82.97
34001,81.22,82.83
34010,81.2,82.81
34017,81.2,82.6
34024,80.97,82.68
34031,80.92,82.74
34038,80.86,79.25
34046,80.96,80.89
34054,80.95,81.63
34061,81.08,82.28
34068,81.02,82.63
34076,80.87,83.04
34083,80.76,83.15
34091,80.92,83.24
34098,80.77,83.07
34105,80.73,83.08
34113,80.65,83.01
34120,80.54,82.9
34127,80.49,82.9
34135,80.72,83.32
34142,81.14,83.87
34150,80.78,84.19
34157,80.75,83.76
34164,81.06,82.94
34171,81.48,81.89
34180,81.11,81.6
34187,80.57,82.16
34194,80.29,83.08
34201,80.38,84.26
34208,80.57,85.26
34216,80.74,85.11
34224,80.88,84.49
34231,80.79,83.36
34238,80.92,82.51
34245,81.14,82.52
34253,81.26,83.24
34260,81.3,83.61
34268,81.17,83.39
34275,81.21,83.3
34282,81.21,83.37
34290,81.25,83.53
34297,81.14,84.15
34305,81.07,84.31
34312,81.15,84.3
34320,81.17,84.1
34327,81.13,83.96
34334,81.33,83.6
34341,81.15,83.51
34349,81.12,83.59
34357,81.12,83.71
34364,81.03,83.69
34371,80.93,83.85
34378,81.02,84.05
34385,81.07,84.02
34394,81.11,84.1
34401,81.09,84.22
34408,80.91,84.12
34415,81.11,83.71
34422,81.37,83.58
34430,81.03,83.74
34438,81.03,84.04
34445,80.81,84.39
34452,80.84,84.79
34460,81.13,85.07
34467,81.05,84.73
34475,80.81,84.09
34482,80.59,83.89
34489,80.83,83.83
34497,80.86,83.89
34504,80.97,84.07
34511,81.08,84.24
34519,80.95,84.08
34526,81.11,83.92
34534,80.98,84.01
34541,80.88,84.02
34548,80.94,84.2
34555,80.94,84.43
34564,80.77,84.53
34571,80.85,84.5
34578,80.81,84.55
34585,80.92,84.7
34592,80.81,84.66
34600,80.87,84.65
34608,80.85,84.62
34615,80.72,84.42
34622,80.71,84.23
34629,80.68,84.23
34637,80.77,84.19
34644,80.91,84
34652,80.85,83.9
34659,80.87,83.72
34667,80.97,83.83
34674,80.97,83.67
34681,80.85,83.8
34689,80.97,83.97
34696,80.92,84.1
34704,81.15,84.27
34711,81.01,84.2
34718,80.99,84.17
34725,81.08,84.15
34733,81.06,84.02
34741,80.96,84.08
34748,80.89,84.05
34755,80.87,83.55
34762,80.59,83.18
34769,80.63,83.13
34778,80.67,83.42
34785,81.09,83.91
34792,80.96,83.95
34799,81.18,83.39
34806,81.25,82.92
34814,81.17,82.15
34822,81.21,81.66
34829,80.96,81.97
34836,80.82,82.98
34844,80.86,84.09
34851,80.92,85.39
34859,81,86.05
34866,81.03,85.6
34873,80.79,84.32
34881,80.98,83.37
34888,80.89,82.77
34895,81.11,83.21
34903,81.04,83.43
34910,81.08,83.54
34918,81.13,83.18
34925,81.19,83.14
34932,81.33,83.03
34939,81.37,83.2
34947,81.56,83.24
34955,81.34,83.27
34962,81.35,83.34
34969,81.24,83.27
34976,81.2,83.19
34984,81.19,83.11
34992,81.17,82.95
34999,81.13,82.99
35006,81.11,82.83
35013,81.11,82.89
35021,81.19,83.13
35028,81.2,83.3
35036,81.2,83.37
35043,81.23,83.24
35050,81.31,82.99
35058,81.43,82.56
35065,81.37,82.12
35073,80.96,82.03
35080,81.13,82.59
35088,81.24,83.12
35095,81.27,83.47
35102,81.32,83.4
35109,81.42,82.96
35117,81.14,82.62
35125,81.17,82.45
35132,81.16,82.87
35139,81.06,83.25
35146,81.29,83.11
35154,81.52,82.97
35162,81.52,82.68
35169,81.52,82.56
35176,81.47,82.46
35183,81.54,82.5
35191,81.62,82.46
35198,81.4,82.54
35206,81.3,82.71
35213,81.26,82.98
35220,81.33,83.1
35228,81.45,83.09
35235,81.28,83.07
35243,81.28,83.02
35250,81.27,83.15
35257,81.28,83.07
35265,81.39,82.93
35272,81.35,82.68
35279,81.49,82.68
35287,81.49,82.68
35295,81.63,82.68
35302,81.73,82.75
35309,81.73,82.67
35316,81.56,82.55
35323,81.37,82.49
35332,81.39,82.52
35339,81.52,82.55
35346,81.61,82.44
35353,81.69,82.34
35361,81.7,82.41
35368,81.66,82.6
35376,81.44,82.74
35383,81.33,82.92
35390,81.29,82.89
35398,81.24,83.02
35405,81.22,82.93
35412,81.06,82.81
35420,81.16,82.55
35428,81.22,82.72
35435,81.77,83.22
35442,81.71,83.87
35449,81.23,84.04
35457,81.28,79.86
35465,81.45,80.32
35472,81.84,79.9
35479,81.83,79.92
35486,81.19,80.94
35494,81.19,82.2
35502,81.43,83.65
35509,81.28,84.61
35516,81.24,84.4
35523,81.03,83.37
35531,81.02,82.26
35538,81.24,81.9
35546,81.41,81.83
35553,81.33,81.89
35560,81.4,81.81
35568,81.54,81.9
35575,81.59,81.81
35582,81.76,81.85
35590,81.82,82.12
35598,81.62,82.19
35605,81.59,82.35
35612,81.51,82.43
35619,81.33,82.24
35627,81.3,82.24
35635,81.34,82.22
35642,81.4,81.98
35649,81.33,81.91
35656,81.27,81.88
35664,81.31,81.88
35672,81.4,82.02
35679,81.44,82.04
35686,81.47,82.01
35693,81.45,81.98
35701,81.47,82.16
35708,81.37,82.16
35716,81.37,81.99
35723,81.27,81.8
35730,81.11,81.65
35738,81.2,81.84
35745,81.2,82.29
35752,81.26,82.89
35760,81.38,82.95
35768,81.36,82.57
35775,81.03,81.87
35782,81.06,81.6
35789,81.17,82.04
35796,81.3,82.58
35805,81.38,82.79
35812,81.4,82.6
35819,81.4,82.32
35826,81.4,82.11
35833,81.33,81.88
35842,81.47,81.96
35849,81.4,82.25
35856,81.38,82.43
35863,81.39,82.71
35871,81.4,82.67
35878,81.3,82.54
35886,81.23,82.55
35893,81.26,82.8
35900,81.15,82.75
35908,81.14,82.71
35915,81.13,82.85
35922,81.17,83.03
35930,81.37,82.82
35938,81.28,82.61
35945,81.19,82.53
35952,81.17,82.54
35959,81.38,82.47
35966,81.36,82.58
35975,81.55,82.53
35982,81.49,82.48
35989,81.6,82.49
35996,81.55,82.56
36003,81.36,82.71
36012,81.33,82.65
36019,81.23,82.97
36026,81.34,82.88
36033,81.23,83.04
36041,81.04,83.08
36048,80.74,82.82
36056,80.62,82.72
36063,80.76,82.68
36070,80.97,83.14
36078,81.26,83.47
36085,81.14,83.72
36092,80.9,83.61
36100,81.05,82.95
36108,81.6,81.93
36115,81.54,81.4
36122,81.14,81.64
36129,80.62,82.51
36136,80.81,83.36
36145,80.93,84.49
36152,80.97,85.11
36159,80.79,84.73
36166,80.66,83.65
36173,80.79,82.84
36182,80.98,82.65
36189,81.15,82.82
36196,81.11,83.13
36203,81.07,83.18
36210,81.09,83.12
36218,81.27,82.94
36226,81.44,83.19
36233,81.59,83.61
36240,81.27,83.84
36248,81.17,83.93
36255,81.25,84.01
36262,81.25,83.99
36270,81.21,84.02
36277,81.11,83.81
36285,81.1,83.84
36292,81.16,83.6
36299,81.16,83.55
36306,81.16,83.67
36314,81.08,83.98
36322,81.14,83.95
36329,81.18,83.88
36336,81.14,83.98
36343,81.1,83.62
36350,81.74,83.4
36359,81.61,83.26
36366,81.11,83.28
36373,81.14,83.68
36380,80.88,84.14
36388,81.09,84.45
36396,81.07,84.56
36403,81.04,84.27
36410,80.79,83.79
36417,80.81,83.36
36425,81.04,83.41
36432,81.16,83.7
36440,81.06,83.86
36447,81.17,83.97
36454,81.13,83.83
36462,81.06,83.6
36469,81.14,83.72
36476,81,83.66
36484,80.9,83.91
36491,80.88,83.82
36499,80.95,83.82
36506,80.95,83.92
36513,80.87,83.91
36520,80.89,84.01
36529,80.92,83.9
36536,81,83.97
36543,80.9,84.04
36550,80.97,83.77
36557,80.89,83.61
36566,80.96,83.51
36573,80.95,83.51
36580,80.88,83.44
36587,80.88,83.36
36594,81.1,83.23
36602,80.94,83.09
36610,81.05,83.05
36617,80.98,82.85
36624,80.96,82.94
36631,80.87,83.13
36639,80.92,83.23
36646,80.9,83.37
36654,80.88,83.41
36661,80.9,83.37
36668,80.77,83.32
36676,80.68,83.26
36683,80.81,83.28
36690,80.81,83.59
36698,81.12,83.98
36706,81.09,84.1
36713,80.96,83.82
36720,81,83.25
36727,81.26,82.35
36734,81.38,81.71
36742,81.01,81.45
36750,80.96,85.65
36757,80.74,84.97
36764,80.98,85.16
36771,81.03,85.4
36779,81.03,85.03
36787,80.8,83.97
36794,80.8,82.88
36801,80.7,82.18
36808,80.8,82.18
36816,80.95,82.51
36824,80.95,82.53
36831,80.86,82.65
36838,81.16,82.61
36845,81.22,82.57
36853,81.34,82.7
36860,81.52,82.92
36868,81.56,82.91
36875,81.47,82.84
36883,81.45,82.8
36890,81.16,82.67
36897,81.35,82.73
36904,81.24,82.6
36912,81.07,82.53
36920,81.03,82.44
36927,80.96,82.42
36934,81.21,82.31
36941,81.09,79.08
36950,81.09,80.75
36957,81.13,81.52
36964,81.34,81.73
36971,81.48,81.77
36978,81.41,81.58
36986,81.24,81.78
36994,81.5,82.24
37001,81.44,82.98
37008,81.39,83.19
37015,81.51,83.12
37023,81.49,82.44
37030,81.18,81.97
37038,81.26,82.13
37045,81.32,82.48
37053,81.38,82.73
37060,81.38,82.74
37067,81.45,82.47
37074,81.36,82.35
37082,81.4,82.12
37090,81.51,81.97
37097,81.61,82.05
37104,81.56,82.15
37111,81.46,82.17
37120,81.29,82.28
37127,81.28,82.23
37134,81.23,82.26
37141,81.28,82.41
37148,81.34,82.42
37156,81.34,82.39
37164,81.39,82.47
37171,81.43,82.34
37178,81.42,82.21
37186,81.28,82.21
37193,81.29,82.23
37200,81.36,82.26
37208,81.35,82.33
37215,81.41,82.24
37223,81.31,82.26
37230,81.39,82.29
37237,81.54,82.26
37244,81.54,82.35
37253,81.41,82.37
37260,81.29,82.34
37267,81.35,82.44
37274,81.29,82.53
37281,81.29,82.74
37289,81.33,82.8
37297,81.17,82.82
37304,81.08,82.74
37311,80.94,82.58
37319,81.12,82.66
37326,81.33,83.12
37334,81.7,83.78
37341,81.43,84
37348,81.14,83.68
37356,81.1,82.74
37363,81.36,81.84
37370,81.81,81.02
37378,81.44,80.88
37386,81.03,82.08
37393,81.18,83.32
37400,81.45,84.54
37407,81.35,84.9
37414,81.29,84.28
37423,80.94,83.07
37430,81.07,82.08
37437,81.21,81.97
37444,81.26,82.38
37451,81.31,82.88
37459,81.26,82.73
37467,81.29,82.39
37474,81.6,82.33
37481,81.42,82.7
37488,81.47,82.89
37496,81.47,83.11
37504,81.4,83.24
37511,81.31,83.36
37518,81.29,83.54
37526,81.09,83.2
37533,80.95,82.99
37540,81.05,82.74
37548,80.99,82.6
37555,80.95,82.58
37563,80.95,82.84
37570,81.06,83.06
37577,80.83,83.1
37584,80.97,82.96
37592,80.91,82.93
37600,81.2,82.61
37607,81.39,82.23
37614,81.2,82.28
37621,80.75,82.56
37628,80.68,82.94
37637,80.51,83.25
37644,80.64,83.8
37651,80.64,83.74
37658,80.7,83.38
37666,80.62,82.69
37673,80.83,82.4
37681,80.99,82.69
37688,80.88,83.01
37695,80.91,83.28
37703,80.78,83.21
37710,80.7,82.67
37718,80.85,82.66
37725,80.92,82.77
37732,80.87,82.84
37740,80.95,83.27
37747,80.93,83.34
37754,80.7,83.31
37762,80.7,83.43
37770,80.53,83.51
37777,80.43,83.4
37784,80.56,83.33
37791,80.75,83.51
37798,80.78,83.48
37807,80.39,83.51
37814,80.38,83.41
37821,80.55,83.33
37828,80.52,83.39
37835,80.7,83.51
37843,80.67,83.47
37851,80.55,83.42
37858,80.76,83.42
37865,80.6,83.44
37873,80.47,83.6
37880,80.45,83.69
37888,80.67,83.81
37895,80.63,83.78
37902,80.62,83.69
37910,80.57,83.7
37917,80.56,83.65
37924,80.5,83.32
37932,80.31,83.31
37940,80.44,83.73
37947,80.49,84.32
37954,80.74,84.72
37961,80.57,84.62
37968,81.08,83.79
37977,81.05,82.98
37984,80.96,82.61
37991,80.5,82.54
37998,80.15,82.79
38005,80.35,83.67
38013,80.33,84.57
38021,80.32,85.51
38028,80.43,85.78
38035,80.37,84.71
38042,80.28,83.43
38050,80.54,82.79
38057,80.59,82.81
38065,80.61,83.16
38072,80.69,83.71
38080,80.82,83.91
38087,80.98,83.79
38094,80.97,84.03
38102,81.05,84.24
38109,80.88,84.39
38117,80.74,84.51
38124,80.69,84.57
38131,80.7,84.49
38138,80.59,84.35
38146,80.71,84.21
38154,80.84,84.09
38161,80.85,84
38168,80.73,84.19
38175,80.99,84.21
38182,80.74,84.39
38191,80.74,84.53
38198,80.85,84.57
38205,80.91,84.63
38212,80.96,84.42
38220,81.63,83.68
38227,81.15,83.57
38235,80.65,83.85
38242,80.65,84.53
38249,80.78,85.12
38257,80.92,85.47
38264,81.01,84.85
38272,80.69,84.08
38279,80.56,83.49
38286,80.56,83.59
38294,80.45,84.26
38301,80.4,84.42
38308,80.53,84.4
38316,80.75,84.19
38324,80.83,83.86
38331,80.93,83.86
38338,80.86,84.1
38345,80.85,84.22
38352,80.94,84.08
38361,80.82,83.8
38368,80.83,83.65
38375,80.8,83.52
38382,80.72,83.6
38389,80.82,83.58
38397,80.76,83.55
38405,80.82,83.52
38412,81.1,83.35
38419,81.15,83.12
38426,81.21,83.07
38434,80.97,82.91
38441,80.79,82.87
38449,80.73,83.04
38456,80.68,83.17
38464,80.56,83.18
38471,80.4,83
38478,80.5,82.98
38486,80.49,83.01
38493,80.35,82.98
38501,80.17,82.99
38508,80.09,83.05
38515,80.06,83.1
38522,80.3,83.13
38530,80.2,83.1
38538,80.03,82.92
38545,80.09,83.07
38552,80.18,83.33
38559,80.29,83.54
38566,80.26,83.24
38575,80.31,82.89
38582,80.09,82.34
38589,80.36,81.77
38596,80.28,81.2
38603,80.38,81.02
38611,80.24,81.59
38619,80.27,82.76
38626,80.24,83.97
38633,80.48,84.28
38641,80.58,83.73
38648,80.61,82.85
38656,80.63,81.98
38663,80.83,81.89
38670,80.66,82.22
38678,80.7,79.08
38685,80.77,80.68
38692,80.84,81.38
38700,80.98,81.81
38708,81.07,82.25
38715,81,82.37
38722,81,82.5
38729,81,82.69
38736,81.06,82.85
38745,81.17,82.71
38752,81.22,82.61
38759,81.23,82.45
38766,81.1,82.32
38773,81,82.21
38781,81.26,82.12
38789,81.25,82.26
38796,81.22,82.39
38803,81.27,82.33
38811,81.24,82.69
38818,81.4,82.45
38825,81.69,82.04
38833,81.63,81.52
38840,81.21,81.39
38848,81.2,81.83
38855,81.32,82.26
38862,81.34,82.83
38870,81.51,83.08
38878,81.47,82.88
38885,81.56,82.33
38892,81.43,82
38899,81.52,82.25
38906,81.44,82.73
38915,81.54,82.91
38922,81.55,82.81
38929,81.56,82.66
38936,81.62,82.59
38943,81.67,82.36
38951,81.78,82.4
38959,81.66,82.3
38966,81.68,82.25
38973,81.73,82.48
38981,81.63,82.52
38988,81.68,82.45
38995,81.65,82.6
39003,81.46,82.58
39010,81.53,82.78
39018,81.41,82.9
39025,81.36,82.98
39032,81.36,83.01
39040,81.38,82.72
39048,81.5,82.6
39055,81.47,82.53
39062,81.47,82.47
39069,81.52,82.54
39076,81.56,82.43
39085,81.56,82.56
39092,81.56,82.43
39099,81.64,82.45
39106,81.64,82.52
39114,81.53,82.53
39121,81.7,82.55
39129,81.66,82.62
39136,81.52,82.54
39143,81.24,82.55
39151,81.1,82.39
39158,80.96,82.39
39165,81.17,82.68
39173,81.9,83.01
39181,81.76,83.76
39188,81.39,83.58
39195,81.59,82.88
39202,81.61,81.77
39209,81.77,80.62
39218,81.69,80.28
39225,81.25,81.02
39232,81.13,82.21
39239,81.27,83.54
39246,81.31,84.55
39255,81.31,84.3
39262,81.22,83.37
39269,81.28,82.46
39276,81.29,82.08
39284,81.27,82.1
39291,81.24,82.2
39299,81.3,82.36
39306,81.21,82.23
39313,81.39,82.18
39321,81.38,82.45
39328,81.32,82.52
39335,81.59,82.61
39343,81.73,82.73
39350,81.75,82.77
39358,81.47,82.7
39365,81.39,82.55
39372,81.27,82.31
39379,81.17,82.3
39388,81.2,82.46
39395,81.08,82.38
39402,81.05,82.37
39409,81.18,82.39
39416,81.2,82.47
39424,81.29,82.47
39432,81.37,82.61
39439,81.19,82.59
39446,81.36,82.42
39453,81.57,82.19
39461,81.25,82.14
39469,81.15,82.18
39476,81.07,82.45
39483,80.9,83.01
39490,80.94,83.31
39498,80.98,83.37
39505,80.87,82.69
39513,80.93,82.12
39520,80.99,82.1
39527,81.11,82.42
39535,81.07,82.91
39542,80.96,82.96
39549,80.86,82.61
39557,80.89,82.45
39565,81.05,82.19
39572,81,82.21
39579,80.9,82.26
39586,80.9,82.32
39593,80.93,82.53
39602,80.94,82.75
39609,80.84,82.87
39616,80.76,83.11
39623,80.81,83.23
39631,80.79,83.07
39639,80.7,82.91
39646,80.67,82.98
39653,80.71,83.17
39660,80.8,83.18
39668,80.88,83.03
39675,80.8,82.92
39683,80.77,82.91
39690,80.67,82.96
39697,80.82,82.91
39705,80.59,83.01
39712,80.62,82.93
39719,80.78,82.98
39727,80.92,83
39734,80.81,83.05
39742,80.99,83.2
39749,80.95,83.27
39756,80.77,83.39
39763,80.73,83.45
39772,80.84,83.32
39779,80.62,82.94
39786,80.69,82.99
39793,80.69,83.37
39800,81.02,83.8
39809,81.02,84.13
39816,80.7,83.87
39823,80.71,83.35
39830,81,82.41
39837,81.08,81.83
39845,80.5,82.14
39853,80.23,82.86
39860,80.38,84.06
39867,80.45,85.02
39875,80.46,85.57
39882,80.42,85.15
39889,80.35,84.06
39897,80.61,83.04
39904,80.79,82.74
39912,80.92,83.21
39919,80.96,83.49
39926,80.82,83.41
39933,80.95,83.23
39941,80.86,83.13
39949,80.95,83.26
39956,81.02,83.49
39963,81.05,83.82
39970,80.9,83.91
39979,80.61,83.74
39986,80.58,83.41
39993,80.87,83.32
40000,80.93,83.27
40007,81,83.22
40015,80.89,83.28
40023,80.87,83.54
40030,80.88,83.72
40037,80.85,83.74
40044,80.84,83.73
40052,80.85,83.92
40059,80.97,83.57
40067,80.88,83.37
40074,81.3,82.87
40081,81.29,82.55
40089,80.52,82.9
40096,80.48,83.38
40103,80.41,84.16
40111,80.36,84.38
40119,80.62,84.28
40126,80.61,83.87
40133,80.59,83.62
40140,80.57,83.44
40147,80.61,83.47
40156,80.64,83.75
40163,80.77,83.95
40170,80.73,83.84
40177,80.61,83.71
40184,80.52,83.78
40193,80.44,83.74
40200,80.58,84.15
40207,80.55,84.39
40214,80.49,84.38
40222,80.46,84.22
40229,80.57,84.22
40237,80.52,84.31
40244,80.44,84.18
40251,80.68,84.18
40259,80.65,84.13
40266,80.8,84.04
40273,80.88,83.66
40281,80.91,83.45
40289,80.99,83.28
40296,80.91,83.05
40303,80.89,83.12
40310,81.04,83.12
40317,81.13,83.14
40326,81.13,83.16
40333,81.05,83.24
40340,81,83.26
40347,80.92,83.33
40354,80.83,83.5
40363,80.72,83.85
40370,80.71,84.05
40377,80.6,84.35
40384,80.75,84.26
40391,80.64,84.08
40399,80.38,83.64
40407,80.33,83.7
40414,80.53,84.08
40421,80.92,84.62
40429,80.69,84.53
40436,80.77,84.03
40443,80.85,83.24
40451,80.74,82.37
40458,80.87,81.95
40466,80.58,82.09
40473,80.39,82.82
40480,80.39,84.02
40487,80.38,85.07
40495,80.49,85.38
40503,80.64,84.67
40510,80.52,83.6
40517,80.6,82.76
40524,80.67,82.58
40531,80.88,82.82
40540,80.86,82.93
40547,81.07,82.86
40554,80.96,82.85
40561,81.05,82.71
40569,81.04,82.85
40577,81.18,82.94
40584,81.11,83.02
40591,81.01,83.18
40598,81.15,83.28
40606,81.13,83.21
40613,81.2,82.91
40621,81.17,82.77
40628,81.1,82.72
40636,81.02,82.72
40643,81.11,82.86
40650,81.08,82.82
40657,81.02,82.91
40665,80.96,82.82
40673,81.14,82.84
40680,81.05,82.66
40687,81.3,82.38
40694,81.25,81.95
40702,81.01,81.64
40710,81.03,81.83
40717,81.27,82.2
40724,81.22,82.78
40731,81.24,83.12
40739,81.41,83.07
40747,81.24,82.59
40754,81.14,82.24
40761,81.06,82.41
40768,81.22,82.92
40776,81.41,83.15
40783,81.55,82.88
40791,81.51,82.68
40798,81.43,82.55
40806,81.52,82.45
40813,81.44,82.43
40820,81.54,82.19
40827,81.57,82.29
40836,81.54,82.43
40843,81.51,82.45
40850,81.47,82.63
40857,81.49,82.68
40864,81.47,82.73
40872,81.44,82.74
40880,81.43,82.79
40887,81.29,82.89
40894,81.23,82.79
40902,81.44,82.65
40909,81.59,82.48
40916,81.64,82.34
40924,81.42,82.45
40931,81.29,82.46
40939,81.3,82.54
40946,81.22,82.62
40953,81.36,82.52
40961,81.26,82.49
40969,81.35,82.47
40976,81.38,82.26
40983,81.36,82.23
40990,81.26,82.18
40997,81.33,82.31
41006,81.19,82.48
41013,81.2,82.66
41020,81.27,82.74
41027,81.25,82.58
41034,81.23,82.41
41042,81.11,82.21
41050,81.09,82.13
41057,81.29,82.41
41064,81.76,82.78
41072,81.76,83.26
41079,81.09,83.42
41086,81.2,83.2
41094,81.55,82.2
41101,82.01,80.79
41109,81.77,80.37
41116,81.4,81.22
41123,81.49,82.56
41131,81.59,83.95
41139,81.64,84.77
41146,81.54,84.59
41153,81.51,83.47
41160,81.47,82.48
41167,81.38,82.01
41176,81.41,82.04
41183,81.26,82.23
41190,81.43,82.51
41197,81.47,82.65
41204,81.58,82.57
41212,81.61,82.45
41220,81.65,82.54
41227,81.63,82.69
41234,81.52,82.8
41242,81.59,82.82
41249,81.73,82.9
41256,81.7,82.7
41264,81.57,82.62
41271,81.62,82.53
41279,81.5,82.7
41286,81.37,82.75
41293,81.41,82.65
41300,81.54,82.74
41309,81.55,82.78
41316,81.53,82.78
41323,81.58,82.86
41330,81.6,82.88
41337,81.76,82.56
41346,81.97,82.47
41353,81.56,82.39
41360,81.51,82.51
41367,81.64,82.78
41375,81.5,83.32
41382,81.55,83.75
41390,81.65,83.55
41397,81.51,82.91
41404,81.34,82.34
41412,81.48,82.26
41419,81.48,82.58
41426,81.6,82.79
41434,81.51,82.89
41442,81.5,82.89
41449,81.6,82.8
41456,81.56,82.81
41463,81.53,82.81
41470,81.62,82.93
41479,81.64,83.1
41486,81.49,83.33
41493,81.46,83.47
41500,81.46,83.39
41507,81.39,83.28
41516,81.14,83.36
41523,81.33,83.34
41530,81.33,83.31
41537,81.33,83.32
41545,81.32,83.37
41552,81.39,83.29
41560,81.4,83.32
41567,81.42,83.39
41574,81.35,83.49
41582,81.47,83.66
41589,81.64,83.64
41596,81.4,83.41
41604,81.49,83.34
41611,81.6,83.33
41619,81.42,83.45
41626,81.64,83.5
41633,81.68,83.59
41640,81.63,83.6
41649,81.5,83.72
41656,81.65,83.8
41663,81.51,83.74
41670,81.23,83.87
41677,81.33,83.96
41686,81.15,83.91
41693,81.13,83.73
41700,81.26,83.39
41707,81.34,83.55
41714,81.35,83.93
41722,81.52,84.35
41730,81.18,84.62
41737,81.13,84.13
41744,81.53,83.26
41751,81.66,82.44
41759,81.3,82.13
41766,80.71,82.42
41774,80.71,83.3
41781,80.94,84.33
41789,80.91,85.31
41796,80.78,85.47
41803,80.83,84.78
41810,80.72,83.55
41818,80.83,82.86
41826,80.93,82.84
41833,81.06,83.21
41840,81.09,83.51
41847,81.1,83.56
41854,81.15,83.48
41863,81.06,83.48
41870,80.97,83.56
41877,80.8,83.84
41884,80.79,83.92
41892,80.83,83.94
41900,80.95,83.84
41907,80.9,83.68
41914,80.89,83.62
41921,80.84,83.66
41929,81.09,83.71
41936,81.2,83.64
41944,81.23,83.81
41951,81.11,84.23
41958,81,84.38
41966,80.9,84.48
41973,80.84,84.49
41980,80.91,84.22
41988,80.99,83.93
41996,81.53,83.45
42003,81.21,83.4
42010,80.88,83.75
42017,80.78,84.34
42024,80.8,84.68
42032,80.95,85.13
42040,80.94,84.97
42047,80.95,84.53
42054,80.72,84.12
42061,80.98,84.1
42070,81.15,84.22
42077,81.19,84.44
42084,81.17,84.54
42091,81,84.3
42098,80.86,84.11
42106,80.93,84.26
42114,80.91,84.37
42121,81.09,84.36
42128,80.91,84.59
42135,80.83,84.75
42143,80.88,84.79
42150,80.79,84.73
42158,80.86,84.81
42165,80.8,84.86
42172,81,84.91
42180,80.98,84.9
42187,80.96,84.71
42194,80.99,84.44
42202,81.04,84.37
42209,80.85,84.27
42217,80.9,84.21
42224,80.9,84.25
42231,80.86,84.21
42238,80.96,83.97
42247,81.03,83.92
42254,81.22,83.92
42261,81.17,83.87
42268,81.15,83.84
42275,81.06,84
42284,80.89,84.05
42291,80.71,84.06
42298,80.86,84.2
42305,80.99,84.24
42312,80.99,84.18
42320,81.09,83.97
42328,80.64,83.78
42335,80.85,83.48
42342,80.73,83.78
42350,81.03,84.16
42357,81.07,84.43
42364,81.18,83.98
42372,81.41,83.59
42379,81.29,82.94
42387,81.27,82.29
42394,81.04,81.98
42401,80.77,82.7
42408,80.64,83.64
42416,80.79,84.34
42424,80.7,85.12
42431,80.84,85.07
42438,80.77,84.31
42445,80.68,83.3
42452,80.86,82.69
42461,80.98,82.57
42468,80.95,82.8
42475,81.08,83.02
42482,81.13,82.95
42489,81.08,82.8
42498,81.1,82.58
42505,81.23,82.4
42512,81.35,82.64
42519,81.23,82.79
42526,81.18,82.85
42534,81.34,82.89
42542,81.35,82.73
42549,81.47,82.59
42556,81.43,82.6
42564,81.35,82.67
42571,81.26,82.64
42578,81.27,82.77
42586,81.29,82.81
42593,81.23,82.88
42601,81.2,83
42608,81.14,82.99
42615,81.14,82.69
42622,81.5,82.23
42630,81.34,81.87
42638,81.09,81.76
42645,81.01,82.18
42652,80.95,82.77
42659,81.04,83.44
42667,81.18,83.61
42675,80.96,83.13
42682,80.86,82.45
42689,80.88,82.13
42696,80.9,82.53
42704,80.97,82.95
42712,80.96,83.06
42719,81.12,82.75
42726,81.16,82.42
42733,81.26,82.22
42741,81.08,82.37
42748,81.18,82.37
42756,81.29,82.33
42763,81.29,82.28
42771,81.21,82.4
42778,81.13,82.47
42785,81.26,82.56
42792,81.16,82.53
42800,81.17,82.55
42808,81,82.8
42815,80.95,83
42822,80.98,82.95
42829,81.13,82.85
42836,81.25,82.75
42844,81.17,82.62
42852,81.19,82.46
42859,81.16,82.62
42866,81.35,82.79
42873,81.33,82.71
42882,81.42,82.67
42889,81.45,82.84
42896,81.5,82.76
42903,81.5,82.74
42910,81.61,82.58
42918,81.53,79.2
42926,81.44,80.82
42933,81.53,81.76
42940,81.46,82.18
42948,81.42,82.61
42955,81.55,82.78
42962,81.54,82.82
42970,81.53,82.85
42977,81.44,82.91
42985,81.37,82.71
42992,81.48,82.84
42999,81.66,83.06
43006,82.1,83.58
43014,81.77,84.19
43022,81.67,84.06
43029,81.73,83.28
43036,81.87,82.06
43043,81.87,80.89
43052,81.76,80.95
43059,81.69,81.92
43066,81.66,83.41
43073,81.74,84.7
43080,81.81,85.24
43088,81.9,84.69
43096,81.83,83.74
43103,81.73,82.56
43110,81.76,82.48
43117,81.72,82.87
43125,81.72,83.14
43132,81.71,82.97
43140,81.87,82.96
43147,81.9,83.01
43155,81.94,83.27
43162,81.88,83.26
43169,81.83,83.19
43176,81.9,83.15
43184,81.96,83.23
43192,81.96,83.18
43199,82.02,83.15
43206,81.82,83.07
43213,81.84,83.01
43222,81.98,82.74
43229,81.89,82.84
43236,81.85,82.89
43243,81.8,83.11
43250,81.66,83.05
43258,81.78,82.9
43266,81.68,83.05
43273,81.77,83.13
43280,82.04,82.94
43287,81.92,82.74
43295,81.6,82.6
43302,81.46,82.53
43310,81.59,83.04
43317,81.53,83.6
43325,81.73,83.98
43332,81.84,83.72
43339,81.44,83.04
43346,81.41,82.26
43354,81.54,82.17
43362,81.59,82.66
43369,81.56,83.23
43376,81.49,83.1
43383,81.69,82.82
43390,81.76,82.46
43399,81.7,82.53
43406,81.64,82.55
43413,81.57,82.85
43420,81.55,82.99
43428,81.34,82.93
43436,81.36,83.07
43443,81.56,83.07
43450,81.58,83.32
43457,81.55,83.24
43465,81.45,83.21
43472,81.44,83.15
43480,81.47,83.23
43487,81.43,83.29
43494,81.24,83.41
43502,81.27,83.53
43509,81.25,83.34
43516,81.54,83.19
43524,81.43,83.12
43532,81.14,83.02
43539,81.04,82.91
43546,80.88,82.73
43553,81.08,82.68
43560,80.99,86.21
43569,81.07,84.53
43576,81.2,83.68
43583,81.23,83.15
43590,81.3,82.75
43597,81.39,82.5
43606,81.48,82.4
43613,81.63,82.82
43620,81.67,82.9
43627,81.5,82.78
43635,81.11,82.72
43642,81.13,82.92
43650,81.03,83.49
43657,81.36,83.85
43664,81.21,84.18
43672,80.79,83.97
43679,80.95,83
43686,81.24,81.67
43694,81.07,80.89
43701,80.42,80.75
43709,80.08,81.62
43716,80,82.71
43723,80.23,83.51
43730,80.47,83.88
43738,80.79,83.3
43746,80.66,82.17
43753,80.68,81.3
43760,80.84,81.41
43767,81.12,81.68
43776,81.07,82.12
43783,81.07,82.08
43790,81.01,82.37
43797,81.2,82.11
43804,81.27,82.28
43812,81.24,82.37
43820,80.97,82.79
43827,80.95,82.99
43834,81.01,83
43842,80.95,82.8
43849,80.92,82.64
43856,80.83,82.61
43864,80.82,82.56
43871,80.78,82.48
43879,80.89,82.57
43886,80.95,82.66
43893,81.16,82.55
43900,81.15,82.48
43909,81.17,82.58
43916,81.08,82.76
43923,81.04,82.48
43930,81.3,82.33
43937,81.44,82.23
43945,80.95,82.3
43953,80.89,82.65
43960,80.82,82.86
43967,80.9,83.2
43974,80.96,83.36
43982,80.9,82.93
43990,80.66,82.37
43997,80.68,82.3
44004,80.81,82.23
44012,80.86,82.55
44019,80.9,82.63
44026,80.83,82.49
44034,80.9,82.22
44041,81.01,82.15
44049,80.84,82.16
44056,80.87,82.42
44063,80.61,82.75
44070,80.49,82.97
44078,80.45,82.97
44086,80.45,83.04
44093,80.49,83.17
44100,80.47,83.12
44107,80.39,82.96
44114,80.39,83.05
44123,80.35,83.14
44130,80.43,83.1
44137,80.68,83.08
44144,80.86,83.12
44152,81.01,83.18
44160,81.12,83.09
44167,80.92,83.07
44174,80.84,83.13
44181,80.81,83.33
44189,80.76,83.47
44196,80.62,83.21
44204,80.71,79.57
44211,80.74,81.21
44218,80.69,81.96
44226,80.63,82.49
44233,80.55,82.66
44240,80.37,82.87
44248,80.29,82.96
44256,80.4,82.76
44263,80.33,82.27
44270,80.31,82.18
44277,80.19,82.43
44284,80.38,82.79
44293,80.72,83.09
44300,80.53,82.77
44307,80.65,82.04
44314,80.66,81.22
44321,80.57,80.45
44329,80.64,79.95
44337,80.36,80.42
44344,80.39,81.21
44351,80.63,82.11
44359,80.72,82.96
44366,80.57,83.28
44374,80.36,82.47
44381,80.19,81.24
44388,80.18,80.58
44396,80.48,80.44
44403,80.62,80.7
44410,80.76,81.05
44418,80.75,80.97
44425,80.52,80.74
44433,80.66,80.73
44440,80.91,80.62
44447,80.99,80.9
44454,81.08,80.98
44463,81.07,81.06
44470,81.08,81.16
44477,80.96,81.09
44484,80.99,81
44491,80.86,80.76
44499,80.98,80.75
44507,80.86,80.83
44514,80.69,81.03
44521,80.73,81.04
44528,80.69,81.12
44536,80.9,81.18
44544,81.01,81.04
44551,81.13,80.82
44558,81.31,80.27
44565,81.41,79.78
44573,81.17,79.41
44580,81.14,79.57
44588,81.39,80.13
44595,81.65,81.05
44603,81.79,81.44
44610,81.64,81.52
44617,81.29,81.04
44624,81.21,80.68
44632,81.28,80.87
44640,81.33,81.03
44647,81.47,81.19
44654,81.49,80.81
44661,81.55,80.6
44669,81.51,80.6
44677,81.42,80.78
44684,81.34,80.81
44691,81.28,80.92
44698,81.16,80.97
44706,81.24,80.72
44713,81.19,80.71
44721,81.16,80.71
44728,81.29,80.76
44735,81.5,80.62
44743,81.66,80.85
44750,81.71,80.9
44758,81.73,80.96
44765,81.72,80.99
44773,81.74,80.88
44780,81.77,80.87
44787,81.83,80.65
44794,81.86,80.71
44802,81.79,80.75
44810,81.79,80.73
44817,81.9,80.47
44824,81.74,80.68
44831,81.63,80.64
44839,81.8,80.66
44847,81.79,80.6
44854,81.81,80.6
44861,81.92,80.42
44868,82.03,80.38
44876,81.97,80.42
44883,82.01,80.63
44891,81.95,80.99
44898,81.84,81.19
44905,81.78,80.98
44913,81.66,80.67
44920,81.56,80.45
44928,81.59,80.37
44935,81.92,80.52
44942,82.36,81.01
44950,81.92,81.77
44957,81.71,81.8
44964,81.92,81.58
44972,82.19,80.24
44979,82.15,78.82
44987,81.76,78.91
44994,81.47,79.75
45001,81.52,81.05
45008,81.42,82.38
45017,81.56,83.16
45024,81.76,82.71
45031,81.8,81.64
45038,81.67,80.6
45045,81.63,80.09
45053,81.71,80.05
45061,81.67,80.31
45068,81.56,80.1
45075,81.66,79.81
45082,81.69,79.9
45090,81.81,80.02
45097,81.79,80.41
45105,81.91,80.59
45112,81.88,80.79
45120,81.89,80.82
45127,81.7,80.62
45134,81.67,80.41
45142,81.49,80.2
45149,81.49,80.2
45157,81.59,79.97
45164,81.68,79.98
45171,81.69,80.2
45178,81.83,80.3
45187,81.76,80.35
45194,81.92,80.37
45201,81.96,80.41
45208,81.87,80.52
45215,82,80.28
45223,82.04,80.12
45231,81.78,79.98
45238,81.95,80.2
45245,81.8,80.45
45252,81.56,80.95
45260,81.67,81.47
45267,81.82,81.88
45275,81.65,81.43
45282,81.44,80.88
45289,81.66,80.54
45297,81.82,80.68
45304,81.79,80.97
45312,81.71,80.9
45319,81.69,80.83
45327,81.99,80.51
45334,82.07,80.48
45341,82.12,80.41
45348,81.98,80.44
45356,82.18,80.49
45364,82.17,80.53
45371,82.23,80.8
45378,82.27,81
45385,82.34,81.05
45393,82.29,81.04
45401,82.19,81.05
45408,82.19,81.17
45415,82.16,81.18
45422,82.16,81.3
45430,82.23,81.22
45437,81.97,81.4
45445,81.93,81.24
45452,81.7,81.17
45459,81.72,81.15
45467,81.89,81.06
45474,81.96,80.97
45481,81.85,80.85
45489,81.89,80.87
45496,81.94,80.68
45504,81.89,80.67
45511,81.96,80.76
45518,82.01,80.66
45526,82.22,80.94
45534,82.07,81.14
45541,82.04,81.2
45548,82.07,81.31
45555,82.04,81.35
45562,81.97,81.03
45571,81.91,80.88
45578,82.09,81.13
45585,82.14,81.25
45592,82.56,81.85
45599,82.26,82.39
45607,81.88,82.4
45615,81.82,81.94
45622,82.11,80.78
45629,82.27,79.9
45637,82.1,79.75
45644,81.62,80.71
45651,81.46,81.95
45659,81.49,83.04
45666,81.64,83.74
45674,81.67,83.45
45681,81.73,82.36
45688,81.71,81.18
45696,81.6,80.67
45703,81.61,80.91
45711,81.72,81.29
45718,81.68,81.42
45725,81.88,81.37
45732,81.75,81.27
45740,81.74,81.37
45748,81.63,81.65
45755,81.65,81.9
45762,81.88,81.76
45769,81.9,81.55
45776,82.03,81.32
45785,82.05,81.24
45792,82.04,81.22
45799,82.03,81.04
45806,81.91,80.98
45814,82.01,81.08
45821,82.01,81.11
45829,81.92,81.21
45836,81.77,81.3
45843,81.81,81.43
45851,81.82,81.64
45858,81.87,81.59
45865,81.88,81.2
45873,81.99,80.81
45881,81.99,80.37
45888,81.77,80.29
45895,82.11,80.75
45902,81.98,81.23
45910,81.97,81.89
45918,81.99,82.16
45925,82.02,81.87
45932,81.88,81.35
45939,81.88,80.95
45947,81.87,81.19
45955,81.98,81.55
45962,82.01,81.47
45969,82.2,81.23
45976,82.37,81.02
45984,82.38,80.91
45991,82.18,81.14
45999,82.04,81.39
46006,82.09,81.52
46013,82.17,81.63
46021,82.26,81.54
46028,82.19,81.82
46035,82.18,81.75
46043,82.31,81.6
46051,82.37,81.65
46058,82.37,81.67
46065,82.26,81.7
46072,82.2,81.72
46080,82.22,81.86
46088,82.17,81.85
46095,82.01,81.89
46102,82.23,81.75
46109,82.15,81.75
46117,82.19,81.69
46125,82.15,81.79
46132,82.29,81.94
46139,82.43,82.04
46146,82.45,81.93
46154,82.45,81.8
46161,82.42,81.61
46169,82.37,81.57
46176,82.34,81.6
46184,82.41,81.79
46191,82.12,82.13
46198,82.18,82.29
46205,82.13,82.31
46213,82.15,82.21
46221,82.23,82.01
46228,82.18,81.93
46235,82.31,81.91
46242,82.24,82.06
46251,82.07,82.44
46258,82.5,82.8
46265,82.41,83.39
46272,82.17,83.42
46279,82.49,82.65
46287,82.48,81.57
46295,82.38,80.51
46302,82.13,80.24
46309,81.98,81.09
46317,81.97,82.41
46324,82.06,83.76
46331,82.1,84.7
46339,82.17,84.4
46346,82.12,83.07
46354,82.03,82.03
46361,82.12,81.45
46368,82.23,81.52
46375,82.24,82.01
46384,82.26,82.44
46391,82.39,82.74
46398,82.56,82.75
46405,82.4,83
46412,82.37,83.17
46420,82.38,83.45
46428,82.41,83.61
46435,82.49,83.76
46442,82.37,83.52
46449,82.49,83.5
46457,82.41,83.41
46465,82.31,83.4
46472,82.45,83.28
46479,82.43,83.26
46487,82.53,83.51
46494,82.55,83.56
46501,82.7,83.43
46509,82.84,83.22
46516,82.69,83.21
46524,82.6,83.47
46531,82.59,83.44
46538,82.85,83.31
46545,82.63,83.21
46553,82.33,83.08
46561,82.3,83.16
46568,82.35,83.33
46575,82.3,84.06
46582,82.43,84.51
46589,82.46,84.35
46598,82.07,83.74
46605,81.86,83.16
46612,82.06,83.15
46619,82.19,83.11
46627,82.27,82.99
46635,82.33,83.04
46642,82.17,79.43
46649,82.14,80.98
46656,82.23,81.52
46664,82.1,81.93
46671,82.01,82.18
46679,82.15,82.42
46686,82.18,82.59
46693,82.06,82.82
46701,81.98,82.94
46708,81.98,83.13
46715,82.01,83.15
46723,82.04,83.19
46731,82.16,83.31
46738,82.11,83.44
46745,82.05,83.36
46752,82.15,83.3
46759,82.13,83.29
46768,81.99,83.12
46775,81.76,83
46782,81.81,82.88
46789,81.91,82.88
46796,82,82.74
46804,82,82.73
46812,82.03,82.58
46819,82.15,82.72
46826,82.33,83.03
46833,82.34,83.15
46841,82.43,83.1
46849,82.4,82.81
46856,82.4,82.87
46863,82.5,82.98
46871,82.68,83.24
46878,82.66,83.23
46885,82.42,83.14
46893,82.31,83.18
46900,82.28,83.21
46908,82.36,83.25
46915,82.17,83.12
