3001,577852
3002,577852
3004,576923
3006,576636
3008,577995
3009,577379
3011,578356
3013,577420
3015,577193
3017,578527
3019,577952
3021,578986
3023,577990
3025,577765
3027,579162
3030,578589
3032,579575
3034,578624
3036,578378
3038,579827
3040,579246
3042,580304
3044,579119
3046,580460
3049,579909
3051,580947
3053,579938
3055,579718
3057,581087
3059,580509
3062,581529
3064,580276
3066,581610
3068,581053
3070,582048
3073,581034
3075,580775
3078,582200
3080,581551
3082,582597
3084,581532
3086,582797
3088,582197
3091,583260
3093,582274
3095,582089
3097,583453
3099,582896
3101,583906
3104,582913
3106,584130
3108,583647
3110,584670
3112,583669
3115,583656
3117,584882
3120,584345
3122,585399
3124,584365
3126,584388
3128,584949
3130,585965
3133,584899
3135,585008
3137,585835
3139,585323
3141,586301
3143,585246
3146,585436
3148,585555
3150,586549
3152,585439
3154,585593
3156,585987
3159,585540
3162,586608
3164,585380
3166,585599
3168,585830
3170,586344
3172,585082
3175,585399
3177,585434
3179,585034
3181,585937
3183,584785
3185,585066
3188,584932
3190,585503
3192,584306
3194,584678
3196,584467
3198,584109
3201,585098
3204,583915
3206,584367
3208,583993
3210,583731
3212,583585
3214,584056
3217,583626
3219,583347
3221,584381
3223,583214
3225,583815
3227,583305
3230,583122
3232,583044
3234,583669
3236,583186
3238,582989
3240,584093
3243,582989
3246,583674
3248,583103
3250,583072
3252,584161
3254,583730
3256,583187
3259,583201
3261,584274
3263,583239
3265,583938
3267,583481
3269,583445
3272,584612
3274,584284
3276,583732
3278,583681
3280,584868
3282,583873
3286,584616
3288,584122
3290,584127
3292,585275
3294,584260
3296,584615
3298,584615
3301,585761
3303,584786
3305,585545
3307,584996
3309,585060
3311,586268
3314,585228
3316,585587
3318,585586
3320,586736
3322,585789
3324,586640
3328,586093
3330,586171
3332,587337
3334,586347
3336,587233
3338,586768
3340,587928
3343,586916
3345,587762
3347,587233
3349,587313
3351,588444
3353,587486
3356,588308
3358,587974
3360,588986
3362,588049
3364,588895
3366,588359
3369,588555
3372,589488
3374,588533
3376,589429
3378,588892
3380,589964
3382,589028
3385,589942
3387,589357
3389,589750
3391,590422
3393,589527
3395,590456
3398,589858
3400,590757
3402,589950
3404,590887
3406,590267
3408,590818
3411,591085
3414,590377
3416,591277
3418,590705
3420,591293
3422,590697
3424,591643
3427,591055
3429,591766
3431,591716
3433,591028
3435,592062
3437,591514
3440,592203
3442,591484
3444,592467
3446,591906
3448,592722
3450,592456
3453,591951
3456,592986
3458,592444
3460,593324
3462,592914
3464,593484
3466,592933
3469,593905
3471,593419
3473,592940
3475,594005
3477,593444
3479,594418
3482,593737
3484,594313
3486,593676
3488,594641
3490,593807
3492,593301
3495,594193
3497,593467
3500,594266
3502,593273
3504,592504
3506,592276
3508,592874
3511,591561
3513,590609
3515,591053
3517,589913
3519,590265
3521,588793
3524,587735
3526,586760
3528,587129
3530,585663
3532,584530
3534,584907
3537,583635
3539,584026
3542,582558
3544,581497
3546,581924
3548,581235
3550,579826
3553,578882
3555,579383
3557,578346
3559,578920
3561,577652
3563,576828
3566,577382
3568,576486
3570,576033
3572,575308
3574,575972
3576,575160
3579,575985
3581,574854
3584,574295
3586,575091
3588,574306
3590,574209
3592,573714
3595,574601
3597,573924
3599,574887
3601,573992
3603,573605
3605,574522
3608,573851
3610,574915
3612,573675
3614,574608
3616,574009
3618,575114
3621,574194
3623,573984
3625,574873
3628,574348
3630,575474
3632,574531
3635,575322
3637,574898
3639,576034
3641,575249
3643,575200
3645,575763
3647,575412
3650,576607
3652,575789
3654,576309
3656,576025
3658,577218
3660,576430
3663,576603
3665,576843
3667,576625
3670,577859
3672,577016
3674,577425
3677,577259
3679,578509
3681,577695
3683,578049
3685,578001
3687,577823
3689,579123
3692,578277
3694,578663
3696,578386
3698,579689
3700,578885
3702,579349
3705,579044
3707,578986
3709,580282
3712,579524
3714,580068
3716,579690
3719,580980
3721,580196
3723,580783
3725,580339
3727,580421
3729,581758
3731,580959
3734,581598
3736,581084
3738,582535
3740,581679
3742,582408
3744,581714
3747,581860
3749,583211
3751,582291
3753,582986
3756,582271
3758,583617
3761,582714
3763,583446
3765,582506
3767,582591
3769,583867
3771,582934
3773,583565
3776,582639
3778,582656
3780,582923
3782,583470
3784,582535
3786,582457
3789,583677
3791,582730
3793,583252
3795,582322
3798,582168
3800,582345
3803,582901
3805,581909
3807,581783
3809,582974
3811,581908
3813,582505
3815,581477
3818,581432
3820,582617
3822,582129
3824,581187
3826,581107
3828,582227
3831,581180
3833,581821
3835,580791
3837,580773
3840,581914
3842,581446
3845,580519
3847,580564
3849,581717
3851,580663
3853,581346
3855,580354
3857,580440
3860,581582
3862,580577
3864,580307
3866,580464
3868,581637
3870,580650
3873,581385
3875,580415
3877,580707
3879,581755
3881,580802
3884,580620
3887,580936
3889,581937
3891,581080
3893,581815
3895,580946
3897,581373
3899,582189
3902,581390
3904,582174
3906,581852
3908,582480
3910,581785
3912,582584
3915,581732
3917,582384
3919,582899
3921,582206
3923,583132
3926,582938
3929,583326
3931,582647
3933,583591
3935,582755
3937,583566
3939,583849
3941,583247
3944,584119
3946,583336
3948,584305
3950,583804
3952,584790
3954,583889
3957,584844
3959,584803
3961,584375
3963,585389
3965,584514
3968,585342
3971,584913
3973,585887
3975,585067
3977,586108
3979,585875
3981,585436
3983,586406
3986,585587
3988,586667
3990,586034
3992,587004
3994,586161
3996,587296
3999,586821
4001,586479
4003,587482
4005,586614
4007,587780
4009,586944
4013,587936
4015,587103
4017,588289
4019,587719
4021,587364
4023,588383
4026,587553
4028,588728
4030,588169
4032,588851
4034,587969
4036,589094
4038,588506
4041,588239
4043,589223
4045,588369
4047,589518
4049,588943
4051,589575
4055,588675
4057,589894
4059,589311
4061,588949
4063,589942
4065,589090
4068,590264
4070,589700
4072,589323
4074,589447
4076,590697
4078,590082
4080,589760
4083,590711
4085,589868
4087,591110
4089,590558
4091,590235
4093,590359
4097,591681
4099,591063
4101,590730
4103,591762
4105,590896
4107,592176
4110,591570
4112,591232
4114,592271
4116,592732
4118,592080
4120,591717
4122,592707
4125,591750
4127,592999
4129,592354
4131,591949
4133,592741
4135,592833
4139,591882
4141,591424
4143,591881
4145,590588
4147,591429
4149,590227
4152,589614
4154,589497
4156,588130
4158,587300
4160,586612
4162,586226
4164,584744
4167,585258
4169,583918
4171,583240
4173,582711
4175,581326
4177,581941
4180,580111
4183,579476
4185,578262
4187,578973
4189,577748
4191,577351
4194,576688
4196,575623
4198,576414
4200,575185
4202,574499
4204,573609
4206,574538
4209,573518
4211,573532
4213,572835
4215,572133
4217,573173
4219,572279
4222,571698
4225,571148
4227,572268
4229,571485
4231,571688
4233,571086
4236,570623
4238,571840
4240,571066
4242,570783
4244,570389
4246,571707
4248,571003
4251,571522
4253,570783
4255,570457
4257,571886
4259,571203
4261,571775
4264,570712
4267,572095
4269,571549
4271,572174
4273,571332
4275,571121
4278,572568
4280,571998
4282,572581
4284,571647
4286,573070
4288,572493
4290,573158
4293,572384
4295,572199
4297,573619
4299,573033
4301,573677
4303,572894
4306,574150
4308,573561
4311,574195
4313,573453
4315,573256
4317,574689
4320,574081
4322,574772
4324,573982
4326,575194
4328,574644
4330,575327
4332,574470
4335,574230
4337,575626
4339,575100
4341,575781
4343,574838
4345,574793
4348,575526
4350,576194
4353,575370
4355,575205
4357,576638
4359,576052
4362,576758
4364,575929
4366,575817
4368,576623
4370,577368
4372,576525
4374,576507
4377,577855
4379,577261
4381,577987
4383,577133
4385,577143
4387,578443
4390,578593
4392,577715
4395,577732
4397,578901
4399,578360
4401,579012
4404,578113
4406,578274
4408,579232
4410,579325
4412,578395
4414,578552
4417,579280
4419,578797
4421,579415
4423,578437
4425,578715
4427,579252
4429,578679
4432,578393
4434,578685
4436,578955
4439,578509
4441,579192
4443,578184
4446,578546
4448,578646
4450,578277
4452,577890
4454,578316
4456,578387
4459,577968
4461,578606
4463,577594
4465,578048
4467,577920
4469,577516
4471,578277
4474,577767
4476,577539
4478,577249
4481,578016
4483,576959
4485,577587
4488,577266
4490,577032
4492,577729
4494,577409
4496,577089
4498,576932
4501,577600
4503,576760
4505,577436
4507,577048
4509,576904
4511,577699
4513,576742
4516,577003
4518,576907
4520,577767
4523,576820
4525,577693
4527,577221
4530,577158
4532,577956
4534,577091
4536,577464
4538,577469
4540,578299
4543,577344
4545,578308
4547,577814
4549,577762
4551,578648
4553,577821
4555,578676
4558,578182
4560,579091
4562,578220
4564,579142
4567,578697
4569,578703
4572,579584
4574,578703
4576,579676
4578,579204
4580,580059
4582,579198
4585,580219
4587,579633
4589,579741
4591,580637
4593,579789
4595,580747
4597,580249
4600,581139
4602,580301
4604,581322
4606,580822
4609,580871
4611,581794
4614,580881
4616,581917
4618,581398
4620,582259
4622,581407
4624,582458
4627,581897
4629,582015
4631,582816
4633,581984
4635,583012
4637,582407
4639,582552
4642,582464
4644,583535
4646,582881
4648,583117
4651,583746
4653,582920
4656,584037
4658,583467
4660,583736
4662,583484
4664,584502
4666,583933
4669,584268
4671,584531
4673,583812
4675,584922
4677,584375
4679,584738
4681,584864
4684,585277
4686,584805
4688,585255
4690,585209
4692,584576
4695,585717
4698,585107
4700,585718
4702,585546
4704,586076
4706,585507
4708,586142
4711,585824
4713,585343
4715,586466
4717,585889
4719,586606
4721,586188
4723,585698
4726,586314
4728,587111
4730,586558
4732,586139
4734,587369
4737,586850
4740,587691
4742,587050
4744,586653
4746,587369
4748,588277
4750,587510
4753,587202
4755,588495
4757,587940
4759,588817
4761,588052
4763,587732
4766,588984
4768,589348
4770,588349
4772,588011
4774,589177
4776,588478
4779,589317
4782,588275
4784,587741
4786,588763
4788,587871
4790,587143
4792,586434
4795,587146
4797,586035
4799,586387
4801,584727
4803,583740
4805,584341
4808,583082
4810,581652
4812,580664
4814,581183
4816,579849
4818,580182
4820,578470
4824,577550
4826,578099
4828,576855
4830,577241
4832,574745
4834,575382
4837,574235
4839,574726
4841,573169
4843,572389
4845,573139
4847,572095
4850,572631
4852,570463
4854,571373
4856,570427
4858,571160
4860,569823
4862,569226
4866,570235
4868,569386
4870,570134
4872,568834
4874,569520
4876,568712
4879,569568
4881,568375
4883,568034
4885,569147
4887,568409
4889,569348
4892,568187
4894,569055
4896,568416
4898,569355
4900,568298
4902,568137
4904,569197
4908,568583
4910,569564
4912,568505
4914,568542
4916,568905
4918,569970
4921,568920
4923,569046
4925,569829
4927,569383
4929,570460
4931,569475
4934,569636
4936,569891
4938,571062
4940,570061
4942,570327
4944,570806
4946,570509
4950,571671
4952,570655
4954,570977
4956,571311
4958,572201
4960,571225
4963,571651
4965,571818
4967,571606
4969,572763
4971,571812
4973,572270
4976,572355
4978,573314
4980,572313
4982,572810
4984,572726
4986,572610
4988,573770
4992,572805
4994,573434
4996,573241
4998,573155
5000,573338
5002,574030
5005,573799
5007,573789
5009,574989
5011,574020
5013,574734
5015,574426
5018,574436
5020,574758
5022,575463
5024,575115
5026,575150
5028,576274
5030,575320
5033,576069
5036,575640
5038,575645
5040,576849
5042,576554
5044,576044
5047,576017
5049,577192
5051,576130
5053,576826
5055,576212
5057,576178
5060,577332
5062,576888
5064,576288
5066,576170
5068,577275
5070,576149
5073,576827
5075,576211
5078,576077
5080,577143
5082,575945
5084,575912
5086,575767
5089,576823
5091,575582
5093,576207
5095,575544
5097,575395
5099,576415
5102,575203
5104,575062
5106,574983
5108,575897
5110,574762
5112,575376
5114,574704
5117,574512
5120,575544
5122,574433
5124,575053
5126,574291
5128,575272
5131,574093
5133,574755
5135,574046
5137,574027
5139,575093
5141,573962
5144,574678
5146,573924
5148,574977
5150,573855
5152,574555
5154,573925
5157,574043
5159,574974
5161,573921
5164,574700
5166,574076
5168,575095
5170,574070
5173,574890
5175,574274
5177,574589
5179,575226
5181,574327
5183,575207
5186,574600
5188,575555
5190,574689
5192,575563
5194,574980
5196,575471
5199,575816
5201,575061
5203,575949
5206,575415
5208,576058
5210,575563
5212,576484
5215,575992
5217,576615
5219,576663
5221,576057
5223,576978
5225,576451
5228,577231
5230,576602
5232,577545
5234,577037
5236,577822
5238,577640
5241,577093
5243,578043
5245,577582
5248,578467
5250,578174
5252,578679
5254,578167
5257,579063
5259,578658
5261,578183
5263,579157
5265,578662
5267,579649
5270,579125
5272,579756
5274,579240
5276,580221
5278,579591
5280,579241
5283,580309
5285,579730
5287,580805
5289,580164
5292,579733
5294,580276
5296,581281
5299,580621
5301,580202
5303,581254
5305,580696
5307,581789
5309,581088
5312,580682
5314,581210
5316,582233
5318,581580
5320,581153
5322,582150
5325,581599
5327,582628
5329,581945
5331,581565
5334,582570
5336,582985
5338,582313
5341,581961
5343,582967
5345,582379
5347,583492
5349,582781
5351,582321
5354,583366
5356,583898
5358,583166
5360,582824
5362,583825
5364,583284
5367,584441
5369,583666
5371,583295
5373,584362
5376,583829
5378,584186
5380,583835
5383,584843
5385,584283
5387,585422
5389,584665
5391,584329
5393,585335
5396,584809
5398,585876
5400,584749
5402,585650
5404,585120
5406,586064
5409,585220
5411,584883
5413,585563
5415,584865
5417,585824
5420,584244
5422,584677
5425,583691
5427,584352
5429,583001
5431,582384
5433,582254
5435,581239
5438,581758
5440,580262
5442,579267
5444,578204
5446,578664
5448,577195
5451,576630
5453,576159
5455,575203
5457,575747
5459,574310
5462,573336
5464,572511
5467,573072
5469,571804
5471,571494
5473,570844
5475,570172
5477,570901
5480,569615
5482,569530
5484,568330
5486,569181
5488,568007
5490,568037
5493,567370
5495,566994
5497,567962
5499,566927
5501,567116
5504,566110
5506,567182
5509,566280
5511,566591
5513,565892
5515,565665
5517,566799
5519,565955
5522,566327
5524,565585
5526,566703
5528,565778
5530,566314
5532,565575
5535,565596
5537,566865
5539,566080
5541,566667
5543,565918
5545,567170
5549,566435
5551,567104
5553,566302
5555,566368
5557,567705
5559,566955
5561,567601
5564,566869
5566,566943
5568,567522
5570,568220
5572,567465
5574,567586
5577,568926
5579,568155
5581,568904
5583,568128
5585,568240
5587,568774
5591,569509
5593,568711
5595,568808
5597,570124
5599,569385
5601,570088
5603,569277
5606,569335
5608,570670
5610,570673
5612,569859
5614,569983
5616,571326
5619,570575
5621,571295
5623,570509
5625,570642
5627,571877
5629,571996
5633,571196
5635,571379
5637,572702
5639,571959
5641,572666
5643,571898
5645,572102
5648,573454
5650,572648
5652,572562
5654,572815
5656,574116
5658,573266
5661,574026
5663,573154
5665,573407
5667,574556
5669,573783
5671,573636
5675,573875
5677,574894
5679,574052
5681,574781
5683,573839
5685,574138
5687,574949
5690,574133
5692,574856
5694,574224
5696,574737
5698,573927
5700,574580
5703,573599
5705,574043
5707,574404
5709,573620
5711,574281
5713,573722
5716,573926
5719,573222
5721,573884
5723,572851
5725,573396
5727,573417
5729,572746
5732,573456
5734,572433
5736,572970
5738,572348
5740,573028
5742,572033
5745,572728
5747,572494
5749,571935
5751,572610
5753,571716
5755,572133
5758,571654
5761,572431
5763,571416
5765,572200
5767,571876
5769,571436
5771,572243
5774,571295
5776,572182
5778,571380
5780,572161
5782,571312
5784,572254
5787,571817
5789,571437
5791,572308
5793,571411
5795,572438
5797,571610
5800,572503
5803,571615
5805,572687
5807,572162
5809,571884
5811,572814
5813,571947
5816,573024
5818,572451
5820,573157
5822,572318
5824,573481
5826,572955
5829,572690
5831,573622
5833,572774
5835,573956
5837,573438
5839,574087
5842,573269
5844,574511
5847,573918
5849,573769
5851,574689
5853,573861
5855,575044
5858,574504
5860,574295
5862,574419
5864,575547
5866,575023
5868,574824
5871,575788
5873,574986
5875,576119
5877,575665
5879,575440
5881,575475
5884,576775
5886,576183
5889,575992
5891,576943
5893,576125
5895,577317
5898,576772
5900,576547
5902,577515
5904,577830
5906,577287
5908,577107
5910,577985
5913,577133
5915,578365
5917,577808
5919,577697
5921,578496
5923,578903
5926,578292
5928,578252
5931,579013
5933,578167
5935,579406
5937,578787
5940,578813
5942,579331
5944,578580
5946,579266
5948,579382
5950,579751
5952,579019
5955,580338
5957,579703
5959,579918
5961,580127
5963,579479
5965,580202
5968,580474
5970,580480
5972,579939
5975,581166
5977,580589
5979,580984
5982,580905
5984,580338
5986,581701
5988,581473
5990,581278
5992,580771
5994,582238
5997,581603
5999,582043
6001,581714
6003,581305
6005,582676
6007,582150
6010,582167
6012,581816
6014,583169
6017,582608
6019,583131
6021,582561
6024,582133
6026,583528
6028,582877
6030,582759
6032,582349
6034,583555
6036,582800
6039,583287
6041,582385
6043,581742
6045,582788
6047,581824
6049,581971
6052,579958
6054,580765
6056,579497
6059,579541
6061,578105
6063,577072
6066,577864
6068,576561
6070,576578
6072,574090
6074,574857
6076,573540
6078,573587
6081,572046
6083,571213
6085,571995
6087,570785
6089,570854
6091,569363
6094,569448
6096,568292
6098,568506
6100,567104
6103,566412
6105,567337
6108,566249
6110,566597
6112,565289
6114,565758
6116,564838
6118,565175
6120,564009
6123,563519
6125,564574
6127,563774
6129,564226
6131,563128
6133,562721
6136,563110
6138,563647
6140,562605
6142,562271
6145,563524
6147,562817
6150,563427
6152,562391
6154,562176
6156,562831
6158,563500
6160,562500
6162,562315
6165,563669
6167,563070
6169,563679
6171,562870
6173,562700
6175,563923
6178,564108
6180,563203
6182,563192
6184,564348
6187,563840
6189,564578
6192,563767
6194,563929
6196,564858
6198,565157
6200,564301
6202,564513
6204,565374
6207,564950
6209,565760
6211,564906
6213,565191
6215,565909
6217,565536
6220,565473
6222,565799
6224,566318
6226,566021
6228,566869
6231,566059
6234,566420
6236,566789
6238,566606
6240,566592
6242,567007
6244,567319
6246,567131
6249,568008
6251,567178
6253,567758
6255,567921
6257,567766
6259,568661
6262,568495
6264,568560
6266,568503
6268,569380
6270,568625
6273,569337
6276,569279
6278,569188
6280,570143
6282,570063
6284,569928
6286,569891
6289,570848
6291,570009
6293,570775
6295,570506
6297,570498
6299,571340
6301,570545
6304,570861
6306,570868
6308,571679
6310,570805
6312,571569
6315,571110
6318,571107
6320,571915
6322,570911
6324,571197
6326,571034
6328,571820
6331,570839
6333,571601
6335,571042
6337,570949
6339,571640
6341,570694
6343,571380
6346,570763
6348,571479
6350,570496
6352,571194
6354,570625
6356,570477
6360,571169
6362,570141
6364,570886
6366,570162
6368,570913
6370,569906
6373,570607
6375,570017
6377,569963
6379,570670
6381,569705
6383,570431
6385,569858
6388,570498
6390,569615
6392,570346
6394,569722
6396,569748
6398,570485
6402,569605
6404,570335
6406,569813
6408,570512
6410,569553
6412,570420
6415,569893
6417,569941
6419,570696
6421,569842
6423,570687
6425,570102
6427,570224
6430,569999
6432,570921
6434,570417
6436,570600
6438,571269
6440,570458
6444,571358
6446,570871
6448,571174
6450,570902
6452,571840
6454,571335
6457,571745
6459,572039
6461,571361
6463,572345
6465,571902
6467,572321
6469,572482
6472,572867
6474,572404
6476,572951
6478,572981
6480,572403
6482,573451
6486,572948
6488,573617
6490,573515
6492,574073
6494,573622
6496,574249
6499,573983
6501,573530
6503,574610
6505,574214
6507,574941
6509,574524
6511,574084
6514,574771
6516,575607
6518,575061
6520,574722
6522,575775
6524,575332
6528,576231
6530,575657
6532,575220
6534,575891
6536,576854
6538,576091
6541,575820
6543,576930
6545,576431
6547,577410
6549,576590
6551,576327
6553,577409
6556,577987
6558,577112
6560,576823
6562,577984
6564,577487
6566,578466
6569,577558
6572,577285
6574,578453
6576,578013
6578,578068
6580,577768
6583,578921
6585,578482
6587,579448
6589,578494
6591,578322
6593,579404
6595,578923
6598,578959
6600,578651
6602,579854
6604,579354
6606,580386
6608,579426
6611,579171
6614,580398
6616,579880
6618,580870
6620,579641
6622,580849
6625,580381
6627,581447
6629,580463
6631,580251
6633,581425
6635,580964
6637,582014
6640,580780
6642,581980
6644,581503
6646,582584
6648,581548
6650,581355
6653,582522
6656,582061
6658,583193
6660,582114
6662,583037
6664,582486
6667,583555
6669,582436
6671,582216
6673,583162
6675,582526
6677,583440
6680,582176
6682,582496
6684,581641
6686,582264
6688,580796
6690,580185
6692,580549
6695,579489
6697,579863
6700,578208
6702,577482
6704,576432
6706,576793
6709,575044
6711,574460
6713,574387
6715,573308
6717,573682
6719,571962
6722,571506
6724,570331
6726,570831
6728,569137
6730,568824
6732,568528
6734,567704
6737,568249
6739,566748
6742,566532
6744,566231
6746,566232
6748,564798
6751,564757
6753,564415
6755,563892
6757,564701
6759,563315
6761,563484
6764,563071
6766,563616
6768,562346
6770,562564
6772,562212
6774,561960
6776,562915
6779,561745
6781,562124
6784,561733
6786,561539
6788,561497
6790,562004
6793,561576
6795,561453
6797,562653
6799,561581
6801,562155
6803,561660
6806,561680
6808,561809
6810,562523
6812,561963
6814,562029
6816,563253
6818,562273
6821,563038
6823,562462
6825,562553
6828,563824
6830,563605
6832,563094
6835,563238
6837,564441
6839,563493
6841,564258
6843,563717
6845,563823
6848,565041
6850,564868
6852,564348
6854,564436
6856,565665
6858,564744
6860,565457
6863,564957
6865,565063
6867,566259
6870,565324
6872,565533
6874,565639
6877,566908
6879,565923
6881,566734
6883,566173
6885,566292
6887,567493
6890,566521
6892,566772
6894,566945
6896,568205
6898,567229
6900,568093
6902,567586
6905,567699
6907,568977
6909,568020
6912,568894
6914,568484
6916,569673
6919,568781
6921,569616
6923,569088
6925,569256
6927,570444
6929,569474
6932,570288
6934,569791
6936,570975
6938,569956
6940,570774
6942,570167
6944,570336
6947,571377
6949,570337
6951,571150
6953,570456
6956,571485
6958,570474
6961,571213
6963,570523
6965,570777
6967,571363
6969,570362
6971,571126
6974,570396
6976,571045
6978,570136
6980,570897
6982,570119
6984,570545
6986,570806
6989,569847
6991,570636
6993,569845
6995,570273
6998,569495
7000,570266
7003,569480
7005,570019
7007,569982
7009,569166
7011,569915
7013,569154
7016,569832
7018,568938
7020,569687
7022,569023
7024,569629
7026,569335
7029,568674
7031,569555
7033,568873
7035,569628
7037,569236
7040,569498
7042,568820
7045,569591
7047,569224
7049,568624
7051,569492
7053,568911
7055,569811
7058,569291
7060,569695
7062,569109
7064,570027
7066,569474
7068,569064
7071,570043
7073,569444
7075,570422
7077,569795
7079,569384
7081,569819
7084,570771
7087,570264
7089,569785
7091,570779
7093,570289
7095,571311
7097,570717
7100,570315
7102,570827
7104,571853
7106,571276
7108,570894
7110,571920
7113,571434
7115,572429
7117,571827
7119,571461
7121,572477
7123,573074
7126,572440
7129,572115
7131,573110
7133,572567
7135,573719
7137,573082
7139,572638
7142,573719
7144,574251
7146,573714
7148,573369
7150,574346
7152,573856
7155,575006
7157,574320
7159,573962
7161,575009
7163,574528
7165,574962
7168,574590
7171,575563
7173,575068
7175,576196
7177,575545
7179,575258
7181,576187
7184,575658
7186,576787
7188,575800
7190,576707
7192,576159
7194,577327
7197,576668
7199,576405
7201,577252
7203,576757
7205,577858
7207,576966
7209,577682
7213,577198
7215,578286
7217,577606
7219,577577
7221,578074
7223,577627
7226,578752
7228,578040
7230,578414
7232,578050
7234,579191
7236,578491
7239,578601
7241,578763
7243,578513
7245,579671
7247,578922
7249,579192
7251,578955
7255,580107
7257,579436
7259,579665
7261,579608
7263,579400
7265,580640
7268,580005
7270,580297
7272,579976
7274,581221
7276,580519
7278,580976
7281,580612
7283,580563
7285,581786
7287,581166
7289,581572
7291,581072
7293,582353
7297,581707
7299,582167
7301,581578
7303,581563
7305,582804
7307,582024
7310,582450
7312,581723
7314,582730
7316,581844
7318,582144
7320,581184
7323,580782
7325,581656
7327,580500
7329,580575
7331,579300
7333,579479
7335,578099
7339,578027
7341,576566
7343,575901
7345,576505
7347,575062
7349,574948
7352,573454
7354,572800
7356,572029
7358,571986
7360,570506
7362,569911
7365,570571
7367,569235
7369,569283
7371,567832
7373,567331
7375,566834
7377,566909
7380,565581
7383,565219
7385,566044
7387,564914
7389,565096
7391,563856
7394,563548
7396,564403
7398,563680
7400,562537
7402,562282
7404,563251
7407,562340
7409,562691
7411,561659
7413,561498
7425,562268
7425,562268
7426,562268
7428,561434
7430,562005
7432,561129
7434,561170
7435,562234
7437,561497
7439,562155
7441,561234
7443,561364
7445,562500
7447,561752
7449,562392
7451,561606
7453,561820
7455,562915
7457,562231
7459,562914
7461,562158
7463,562418
7465,563445
7468,562814
7470,563648
7472,562783
7474,563244
7476,564111
7478,563509
7480,564292
7482,564083
7484,564736
7486,564176
7488,564968
7491,564217
7493,564778
7495,565309
7497,564897
7499,565783
7501,565612
7504,566031
7506,565630
7508,566402
7511,565629
7513,566377
7515,566605
7517,566315
7520,567131
7522,566362
7524,567300
7526,567004
7528,567858
7530,567111
7533,568014
7535,568051
7537,567843
7539,568719
7541,567978
7543,568870
7546,568711
7548,569633
7550,568854
7553,569844
7555,569657
7557,569489
7559,570386
7562,569665
7564,570628
7566,570194
7568,571069
7570,570326
7572,571305
7575,570909
7577,570724
7579,571555
7581,570721
7583,571617
7585,570945
7588,571694
7590,570776
7592,571778
7595,571193
7597,570906
7599,571633
7601,570684
7604,571580
7606,571000
7608,571420
7610,570430
7612,571300
7614,570679
7617,570303
7619,571059
7621,570073
7623,571035
7625,570349
7627,570687
7630,569669
7632,570598
7634,569912
7636,569603
7639,570339
7641,569314
7643,570198
7646,569548
7648,569202
7650,568945
7652,569901
7654,569201
7656,568919
7659,569677
7661,568710
7663,569707
7665,569018
7667,568741
7669,568607
7672,569651
7674,568981
7676,568714
7678,569491
7681,568592
7683,569643
7685,568974
7688,568823
7690,569602
7692,569855
7694,569176
7696,569025
7698,569859
7701,568950
7703,570098
7705,569486
7707,569436
7709,570157
7711,570474
7714,569918
7716,569895
7718,570544
7720,569731
7723,570936
7725,570377
7727,570459
7730,570969
7732,570294
7734,570878
7736,571066
7738,571410
7740,570799
7743,572044
7745,571521
7747,571765
7749,571892
7751,571327
7753,572137
7756,572458
7758,572440
7760,571970
7762,573269
7764,572729
7767,573142
7769,573064
7772,572571
7774,573859
7776,573818
7778,573613
7780,573263
7782,574524
7785,574039
7787,574623
7789,574264
7791,573874
7793,575195
7795,574694
7798,574803
7800,574514
7802,575835
7804,575249
7806,575928
7809,575348
7812,575048
7814,576451
7816,575848
7818,575870
7820,575612
7822,576983
7824,576417
7827,577169
7829,576397
7831,576122
7833,577483
7835,576902
7837,577730
7840,576692
7842,578038
7844,577544
7846,578334
7848,577477
7851,577233
7854,578573
7856,578023
7858,578809
7860,577757
7862,579132
7864,578551
7866,579364
7869,578428
7871,578227
7873,579613
7875,579078
7877,579883
7879,578976
7882,580148
7884,579592
7886,580459
7888,579508
7890,579385
7892,580728
7896,580178
7898,581017
7900,580153
7902,581280
7904,580778
7906,581578
7908,580703
7911,580455
7913,581859
7915,581339
7917,582112
7919,581249
7921,580971
7924,581635
7926,582402
7928,581363
7930,581085
7932,582322
7934,581539
7938,582107
7940,580914
7942,580408
7944,580441
7946,580770
7948,579369
7950,578669
7953,579405
7955,578196
7957,578372
7959,576771
7961,575944
7963,576608
7966,575369
7968,573764
7970,573028
7972,573442
7974,572210
7976,572375
7980,570778
7982,570138
7984,570484
7986,569575
7988,568023
7990,567544
7992,567710
7995,566750
7997,567042
7999,565554
8001,565225
8003,565453
8005,564573
8008,563569
8010,563475
8012,563533
8014,562818
8016,563339
8018,562117
8022,562104
8024,562164
8026,561575
8028,561029
8030,561178
8032,561206
8034,560772
8037,561524
8039,560423
8041,560707
8043,560671
8045,560320
8047,561107
8050,560527
8052,560430
8054,560292
8056,561154
8058,560193
8060,560736
8064,560614
8066,560484
8068,561414
8070,561148
8072,560960
8074,560937
8077,561823
8079,560980
8081,561691
8083,561463
8085,561471
8087,562442
8089,561657
8092,562032
8094,562133
8096,563091
8098,562284
8100,563057
8102,562759
8105,562808
8108,563765
8110,562972
8112,563411
8114,563451
8116,564490
8118,563657
8121,564470
8123,564164
8125,564236
8127,565197
8129,564342
8131,565145
8134,564919
8136,565848
8138,564996
8140,565906
8142,565557
8144,565580
8147,566613
8150,565796
8152,566670
8154,566407
8156,567464
8158,566637
8161,567597
8163,567198
8165,567353
8167,568462
8169,567638
8171,568529
8173,568233
8176,569270
8178,568462
8180,569304
8182,568942
8184,569083
8186,570089
8189,569219
8192,570080
8194,569685
8196,570638
8198,569798
8200,570535
8203,570130
8205,570218
8207,571050
8209,570080
8211,570887
8213,570437
8215,570444
8218,570271
8220,570987
8222,570448
8224,570468
8226,571157
8228,570100
8231,570852
8233,570272
8236,570397
8238,569923
8240,570633
8242,570073
8245,570258
8247,570481
8249,569628
8251,570289
8253,569689
8255,570008
8257,570013
8260,569995
8262,569447
8264,569819
8266,569644
8268,568894
8270,569730
8273,569207
8275,569622
8278,569376
8280,569481
8282,568976
8284,569458
8287,569107
8289,568539
8291,569359
8293,568866
8295,569490
8297,569071
8299,568568
8302,568900
8304,569657
8306,569122
8308,568574
8310,569575
8312,569069
8315,569822
8317,569193
8320,568819
8322,569375
8324,570186
8326,569484
8329,569191
8331,570203
8333,569721
8335,570693
8337,569870
8339,569600
8341,570561
8344,571169
8346,570354
8348,570106
8350,571182
8352,570760
8354,571732
8357,570899
8359,570680
8361,571706
8364,572399
8366,571525
8368,571277
8371,572403
8373,571983
8375,573071
8377,572196
8379,571942
8381,573058
8383,572611
8386,572864
8388,572645
8390,573751
8392,573309
8394,574388
8396,573533
8399,573259
8401,574393
8403,573969
8406,575044
8408,573954
8410,575065
8413,574678
8415,575808
8417,574857
8419,574622
8421,575692
8423,575314
8425,576378
8428,575306
8430,576398
8432,575982
8434,577029
8436,576138
8438,575905
8441,577011
8443,576599
8445,577677
8448,576750
8450,577614
8452,577222
8455,578270
8457,577271
8459,577072
8461,578118
8463,577724
8465,578780
8467,577792
8470,578632
8472,578198
8474,579325
8476,578323
8478,578286
8480,579183
8483,578738
8485,579879
8487,578858
8489,578939
8492,579280
8494,580455
8497,579480
8499,579513
8501,580183
8503,579839
8505,580964
8507,579986
8509,580199
8512,580371
8514,581509
8516,580564
8518,580810
8520,581082
8522,580907
8525,582102
8527,581105
8529,581496
8531,581649
8534,582782
8536,581802
8539,582201
8541,582219
8543,582134
8545,583412
8547,582423
8549,582837
8552,582796
8554,583898
8556,582798
8558,583311
8560,582999
8562,582891
8564,583957
8567,582778
8569,583090
8571,582498
8573,582260
8576,581605
8578,581781
8581,580787
8583,580310
8585,580955
8587,579266
8589,579250
8591,577996
8594,577334
8596,576120
8598,576061
8600,574727
8602,574077
8604,574566
8606,572877
8609,572761
8611,571452
8613,570853
8615,571363
8617,569795
8620,568491
8623,567967
8625,568551
8627,566939
8629,567096
8631,565855
8633,565407
8636,566074
8638,564826
8640,563601
8642,563323
8644,564083
8646,562687
8648,563060
8651,561991
8653,561770
8655,562610
8657,561358
8659,560834
8662,560742
8665,561682
8667,560500
8669,561042
8671,560150
8673,560114
8675,561193
8678,560072
8680,559883
8682,559898
8684,560983
8686,560020
8688,560671
8690,559959
8693,560012
8695,561210
8697,560165
8699,560994
8701,560397
8704,561553
8707,560666
8709,561416
8711,560728
8713,560988
8715,562142
8717,561202
8720,562069
8722,561646
8724,562794
8726,561904
8728,562767
8730,562111
8732,562412
8735,563589
8737,562641
8739,563466
8741,562884
8743,564178
8745,563369
8749,564235
8751,563572
8753,564024
8755,564753
8757,564053
8759,564946
8762,564286
8764,565458
8766,564671
8768,565622
8770,564936
8772,565560
8774,565988
8777,565339
8779,566275
8781,565682
8783,566393
8785,566104
8787,567095
8791,566515
8793,567306
8795,567590
8797,567026
8799,568019
8801,567449
8804,568257
8806,567880
8808,568922
8810,568353
8812,569206
8814,569177
8816,568730
8819,569685
8821,569064
8823,569991
8825,569858
8827,570304
8829,569676
8833,570644
8835,570341
8837,569841
8839,570743
8841,570061
8843,570973
8846,570493
8848,570870
8850,570183
8852,571126
8854,570538
8856,569980
8858,570817
8861,570056
8863,570957
8865,570392
8867,569802
8869,569911
8871,570775
8875,570141
8877,569594
8879,570426
8881,569650
8883,570496
8885,569813
8888,569233
8890,569248
8892,570217
8894,569482
8896,568908
8898,569739
8900,568956
8903,569914
8905,569188
8907,568643
8909,569499
8911,569632
8913,568950
8916,568467
8919,569347
8921,568581
8923,569547
8925,568847
8927,568341
8930,569230
8932,569551
8934,568889
8936,568443
8938,569294
8940,568641
8943,569672
8945,569066
8947,568584
8949,569530
8951,568808
8953,569298
8955,568866
8958,569808
8961,569214
8963,570240
8965,569644
8967,569254
8969,570250
8972,569668
8974,570097
8976,569807
8978,570710
8980,570113
8982,571260
8985,570650
8987,570390
8989,571235
8991,570660
8993,571787
8995,571034
8997,571791
9000,571333
9003,572493
9005,571881
9007,571817
9009,572344
9011,571923
9014,573108
9016,572486
9018,572934
9020,572576
9022,573781
9024,573226
9027,573347
9029,573560
9031,573245
9033,574464
9035,573958
9037,574175
9039,573972
9042,575195
9044,574610
9047,574850
9049,574850
9051,574620
9053,575864
9056,575247
9058,575656
9060,575285
9062,576586
9064,575971
9066,576318
9069,576019
9071,575945
9073,577169
9075,576633
9077,577000
9079,576479
9081,577780
9084,577183
9086,577629
9089,577092
9091,577074
9093,578312
9095,577739
9098,578218
9100,577624
9102,578903
9104,578223
9106,578782
9108,578125
9111,578105
9113,579386
9115,578729
9117,579294
9119,578595
9121,579870
9123,579264
9126,579804
9128,579045
9131,579078
9133,580429
9135,579771
9137,580320
9140,579548
9142,579634
9144,580292
9146,580928
9148,580166
9150,580227
9153,581524
9155,580904
9157,581556
9159,580826
9161,580845
9163,581626
9165,582214
9168,581424
9170,581541
9172,582852
9175,582238
9177,582907
9179,582114
9182,582211
9184,583446
9186,583450
9188,582578
9190,582575
9192,583769
9195,583077
9197,583627
9199,582605
9201,582475
9203,583508
9205,582927
9207,581687
9210,581333
9212,582165
9214,580987
9217,581078
9219,579563
9221,579059
9224,579591
9226,578215
9228,576610
9230,575988
9232,576417
9234,575080
9237,574926
9239,573370
9241,572768
9243,573185
9245,571917
9247,570211
9249,569905
9252,570218
9254,568937
9256,569011
9259,567538
9261,567218
9263,567469
9266,566367
9268,566513
9270,565045
9272,565189
9274,564232
9276,564493
9279,563219
9281,563353
9283,563454
9285,562644
9287,562997
9289,562163
9292,562149
9294,561496
9296,561939
9298,560937
9300,561349
9303,561369
9305,560852
9308,561417
9310,560430
9312,561009
9314,560657
9316,561347
9318,560408
9321,561181
9323,561078
9325,560800
9327,561498
9329,560634
9331,561302
9334,561101
9336,561829
9338,561077
9340,561961
9342,561717
9345,561592
9347,562407
9350,561669
9352,562620
9354,562210
9356,563079
9358,562397
9360,563393
9363,563091
9365,563008
9367,563929
9369,563143
9371,564219
9373,563837
9376,564678
9378,564023
9380,565073
9382,564683
9384,564637
9387,565514
9389,564849
9392,565940
9394,565485
9396,566360
9398,565612
9400,566689
9402,566275
9405,566299
9407,567196
9409,566449
9411,567588
9413,567152
9415,568064
9418,567399
9420,568540
9422,568119
9424,568189
9426,569080
9428,568442
9431,569566
9434,569168
9436,569149
9438,569415
9440,570610
9442,570099
9444,570120
9447,571000
9449,570294
9451,571402
9453,570921
9455,570954
9457,570971
9460,572047
9462,571573
9464,571444
9466,572236
9468,571413
9470,572440
9473,571836
9476,571697
9478,572398
9480,572547
9482,571842
9484,571735
9486,572383
9489,571324
9491,572342
9493,571617
9495,571494
9497,571981
9499,572023
9502,571225
9504,571163
9506,571539
9508,570593
9510,571535
9512,570822
9515,570791
9518,571095
9520,570137
9522,570356
9524,570396
9526,570478
9528,569673
9531,570617
9533,569851
9535,570077
9537,569982
9539,569223
9541,569535
9544,569799
9546,569602
9548,568833
9550,569907
9552,569232
9554,569649
9556,569284
9560,568721
9562,569817
9564,569578
9566,569224
9568,568635
9570,569795
9573,569157
9575,569710
9577,569205
9579,568728
9581,569956
9583,569976
9586,569443
9588,569058
9590,570290
9592,569695
9594,570373
9596,569744
9598,569385
9602,570667
9604,570089
9606,570146
9608,569884
9610,571113
9612,570600
9615,571415
9617,570673
9619,570406
9621,571724
9623,571167
9625,572013
9628,570967
9630,572293
9632,571773
9634,572632
9636,571804
9638,571590
9640,572964
9644,572423
9646,573352
9648,572299
9650,573722
9652,573175
9654,574012
9657,573177
9659,572986
9661,574303
9663,573817
9665,574682
9667,573821
9670,574997
9672,574523
9674,575406
9676,574556
9678,574296
9680,575673
9683,575160
9686,576077
9688,575232
9690,576389
9692,575866
9694,576750
9696,575844
9699,575652
9701,577038
9703,576488
9705,577392
9707,576509
9709,576292
9712,577104
9714,577993
9716,577088
9718,576915
9720,578223
9722,577714
9725,578608
9728,577749
9730,577544
9732,578287
9734,579190
9736,578275
9738,578085
9741,579399
9743,578904
9745,579814
9747,578867
9749,578754
9751,580002
9754,580423
9756,579489
9758,579486
9760,580546
9762,580063
9764,580993
9767,580042
9769,580146
9772,581155
9774,581611
9776,580644
9778,580878
9780,581583
9783,581196
9785,582149
9787,581245
9789,581371
9791,581914
9793,581564
9796,581408
9798,581562
9800,581852
9802,581359
9804,582080
9806,580864
9809,580913
9811,580846
9814,580217
9816,579300
9818,579181
9820,578775
9822,577980
9825,578321
9827,576727
9829,576520
9831,575983
9833,575099
9835,575404
9838,573578
9840,572848
9842,572051
9844,572358
9846,570784
9848,570665
9851,569872
9853,569183
9856,569534
9858,568016
9860,567152
9862,566510
9864,567009
9867,565567
9869,565681
9871,564824
9873,564336
9875,564872
9877,563502
9880,562969
9882,562660
9884,563270
9886,561946
9888,562341
9890,561682
9893,561381
9895,562072
9897,560956
9900,560755
9902,560601
9904,561414
9906,560388
9909,560889
9911,560236
9913,560187
9915,561101
9917,560062
9919,560742
9922,560186
9924,561142
9926,560163
9928,560968
9930,560411
9932,560391
9935,561438
9937,560532
9939,561328
9942,560932
9944,561967
9946,561110
9948,561941
9951,561563
9953,561607
9955,562610
9957,561786
9959,562678
9961,562223
9964,563397
9966,562557
9968,563430
9970,563003
9972,563143
9974,564213
9977,563396
9979,564234
9981,563899
9984,565029
9986,564197
9988,565054
9990,564691
9993,564841
9995,565864
9997,565029
9999,565968
10001,565561
10004,566744
10006,565922
10008,566820
10011,566383
10013,566684
10015,567622
10018,567733
10020,567426
10022,567826
10025,568553
10028,567843
10030,568411
10032,568900
10035,569485
10037,568819
10039,569783
10042,569965
10044,570363
10046,569737
10049,570724
10051,570308
10053,571103
10056,570518
10058,571397
10060,570959
10063,571570
10065,571597
10067,571844
10071,571401
10073,571982
10075,571819
10078,571199
10080,571494
10082,572129
10085,571840
10087,571168
10089,571970
10092,572041
10094,571520
10096,570950
10099,571743
10101,571163
10103,571190
10106,570574
10108,571434
10110,570806
10114,571537
10116,570834
10118,571093
10120,570448
10123,571254
10125,570482
10127,569950
10130,570187
10132,571030
10134,570173
10137,569642
10139,570488
10141,570802
10144,569907
10146,569499
10148,570370
10151,569838
10153,569839
10156,569399
10159,570341
10161,569799
10163,570726
10166,569884
10168,570491
10170,569998
10173,570925
10175,570080
10177,569761
10180,570153
10182,571229
10184,570404
10187,570096
10189,571106
10191,571652
10194,570759
10196,570525
10199,571513
10202,571036
10204,571295
10206,570973
10208,572010
10211,571579
10213,572687
10215,571845
10218,572595
10220,572215
10222,573322
10225,572459
10227,572259
10229,572847
10232,573929
10234,573097
10236,572878
10240,573918
10242,574607
10244,573808
10247,573612
10249,574639
10251,574281
10254,574526
10256,574352
10258,575316
10261,574934
10263,576066
10265,575219
10268,576037
10270,575615
10272,576743
10275,575886
10277,575899
10279,576315
10283,577439
10285,576541
10287,576632
10290,577154
10292,578086
10294,577161
10296,577341
10299,577694
10301,577438
10303,578636
10306,577996
10308,578245
10310,578112
10313,579200
10315,578357
10317,578761
10320,578625
10322,579814
10324,578936
10328,579260
10330,579139
10332,580353
10335,579478
10337,579872
10339,579707
10342,580903
10344,579995
10346,580502
10349,580178
10351,580182
10353,581449
10356,581080
10358,580648
10360,580718
10363,581923
10365,581090
10368,581191
10371,581325
10373,582582
10375,581674
10378,582328
10380,581903
10382,583165
10384,582304
10387,583018
10389,582357
10391,583824
10394,582945
10396,583689
10398,582915
10401,583083
10403,584308
10405,584157
10408,583448
10411,583444
10413,584600
10416,583624
10418,583286
10420,583202
10423,584129
10425,582919
10427,583268
10430,581799
10432,582560
10434,581068
10437,581186
10439,579872
10441,579892
10444,578263
10446,578305
10448,576849
10451,576246
10454,576761
10456,575109
10459,573637
10461,573012
10463,573586
10466,571908
10468,570610
10470,570081
10472,570619
10475,569107
10477,569225
10479,567359
10482,567995
10484,566527
10486,566797
10489,565483
10491,565925
10493,564520
10497,564875
10499,563623
10501,563442
10504,564251
10506,563448
10508,562362
10511,562240
10513,563156
10515,561982
10518,561480
10520,561589
10522,562482
10525,561390
10527,562030
10529,561319
10532,562150
10534,561159
10536,561892
10540,561055
10542,562135
10544,561245
10547,562036
10549,561215
10551,561753
10554,562300
10556,562397
10558,561632
10560,562302
10563,562759
10565,562056
10567,562226
10570,562891
10572,563271
10574,562700
10577,563558
10579,563606
10582,563858
10585,563306
10587,564263
10589,563496
10592,564436
10594,563972
10596,564883
10599,564207
10601,565156
10603,565064
10606,565568
10608,564897
10610,565865
10613,565754
10615,565259
10617,565489
10620,566499
10622,566283
10625,565906
10628,566843
10630,567277
10632,567045
10635,566653
10637,567605
10639,566973
10642,568122
10644,567461
10646,568473
10648,567827
10651,568991
10653,568605
10655,569384
10658,568724
10660,569825
10662,569402
10665,569112
10668,569486
10670,570703
10673,570186
10675,569838
10677,570798
10680,571238
10682,570774
10684,570400
10687,571339
10689,570593
10691,571694
10694,570723
10696,571632
10698,570861
10701,571915
10703,571334
10705,571691
10708,570911
10711,571917
10713,571331
10716,570848
10718,570863
10720,571904
10723,571231
10725,570676
10727,571493
10729,571676
10732,570994
10734,570511
10736,571308
10739,570431
10741,571393
10743,570198
10746,571008
10748,570173
10750,571176
10754,570457
10756,570816
10758,569985
10761,570969
10763,570335
10765,569883
10768,569834
10770,570871
10772,570250
10775,569885
10777,570646
10779,570949
10782,570252
10784,570033
10786,570669
10789,569848
10791,570992
10793,570251
10797,570701
10799,570054
10801,571214
10804,570624
10806,570912
10808,570367
10811,571509
10813,570934
10815,570982
10817,570738
10820,571873
10822,571379
10824,571538
10827,571569
10829,572439
10831,571871
10834,572099
10836,572066
10839,571714
10842,572995
10844,572785
10846,572605
10849,572332
10851,573602
10853,573129
10856,573181
10858,572931
10860,574252
10863,573755
10865,574204
10867,573628
10870,574957
10872,574456
10874,574931
10877,574457
10880,574326
10882,575156
10885,575615
10887,575120
10889,574995
10892,576325
10894,576334
10896,575731
10899,575672
10901,576994
10903,576457
10905,576380
10908,576318
10910,577663
10912,577140
10915,577732
10917,576907
10919,578293
10923,577736
10925,578331
10927,577631
10930,577528
10932,578327
10934,578907
10937,578204
10939,578062
10941,579396
10944,579453
10946,578693
10948,578635
10951,580023
10953,579409
10955,579203
10958,579115
10960,580447
10962,579911
10966,580542
10968,579699
10970,580958
10973,580400
10975,581014
10977,580273
10980,580147
10982,580893
10984,581512
10987,580758
10989,580717
10991,582001
10993,582070
10996,581271
10998,581234
11000,582588
11003,582059
11005,581861
11008,581839
11011,583162
11013,582595
11015,583285
11018,582522
11020,583791
11022,583286
11025,583936
11027,583104
11029,583154
11032,583857
11034,584506
11036,583661
11039,583804
11041,584875
11043,584938
11046,584077
11048,584196
11051,585019
11054,584391
11056,583960
11058,584046
11061,584462
11063,583729
11065,584036
11068,582788
11070,582846
11072,581897
11075,582039
11077,580634
11079,580490
11081,579249
11084,579299
11086,577777
11088,577617
11091,577186
11094,576202
11096,574702
11099,574635
11101,574057
11103,573148
11106,571720
11108,571784
11110,571169
11113,570378
11115,570499
11117,569248
11120,568613
11122,567965
11124,568224
11127,566888
11129,567236
11131,566011
11134,566346
11137,565120
11139,565614
11142,565015
11144,565027
11146,563864
11149,564487
11151,563900
11153,563635
11156,563147
11158,563879
11160,563320
11163,563066
11165,563749
11167,562800
11169,563004
11172,562895
11174,563609
11176,562747
11180,563665
11182,562994
11184,563856
11187,563021
11189,563959
11191,563451
11194,564274
11196,563483
11198,564451
11201,563992
11203,564050
11205,564135
11208,565131
11210,564709
11212,564739
11215,565571
11217,564802
11219,565425
11223,565472
11225,566351
11227,565555
11230,566632
11232,566209
11234,567024
11237,566305
11239,567348
11241,566870
11244,567752
11246,567000
11248,567999
11250,567524
11253,567572
11255,567675
11257,568728
11260,568305
11262,568340
11265,569214
11268,568401
11270,569083
11272,569174
11275,570001
11277,569268
11279,570385
11282,570095
11284,570843
11286,570080
11289,571290
11291,570839
11293,571710
11296,570974
11298,572149
11300,571721
11303,571952
11305,571805
11308,572919
11311,572410
11313,572788
11315,573042
11318,572363
11320,572884
11322,573304
11325,573366
11327,572731
11329,573757
11332,573592
11334,573504
11336,572794
11338,573834
11341,573211
11343,573343
11345,572704
11348,573656
11351,573033
11353,573466
11356,572383
11358,573406
11360,572757
11363,573282
11365,572663
11367,572046
11370,572402
11372,572964
11374,572239
11377,571724
11379,572760
11381,572622
11384,571861
11386,571340
11388,572327
11392,571687
11394,571443
11396,571004
11399,572098
11401,571409
11403,572190
11406,570801
11408,571894
11410,571235
11413,572012
11415,571077
11417,570707
11420,571259
11422,572094
11424,571084
11426,570751
11429,571952
11431,572282
11433,571303
11437,570984
11439,572209
11441,571665
11444,571554
11446,571278
11448,572584
11451,572056
11453,572919
11455,572004
11458,573039
11460,572459
11462,573376
11465,572485
11467,572221
11469,573049
11472,573925
11474,573023
11476,572784
11480,574107
11482,574540
11484,573622
11487,573321
11489,574613
11491,574106
11494,574209
11496,574019
11498,575286
11501,574792
11503,575772
11505,574848
11508,575997
11510,575458
11512,576477
11514,575519
11517,575289
11520,576083
11522,577089
11525,576164
11527,576021
11529,577320
11532,577796
11534,576814
11536,576734
11539,577936
11541,577415
11543,577464
11546,577431
11548,578501
11550,577998
11553,578935
11555,578057
11557,578962
11560,578550
11563,579568
11565,578598
11568,578660
11570,579130
11572,580120
11575,579174
11577,579370
11579,579941
11582,580666
11584,579650
11586,579975
11589,580421
11591,580131
11593,580195
11596,580582
11598,580887
11600,580666
11602,581717
11606,580753
11608,581362
11610,581188
11613,582262
11615,581302
11617,581750
11620,581711
11622,582846
11624,581919
11627,582405
11629,582373
11631,583389
11634,582470
11636,583072
11638,582896
11641,582850
11643,583019
11645,583718
11649,583433
11651,583406
11653,584493
11656,583524
11658,583756
11660,583663
11663,584626
11665,583573
11667,584078
11670,583329
11672,584155
11674,582925
11677,583242
11679,582475
11681,582756
11684,581289
11686,581527
11688,580495
11691,579935
11694,578879
11696,578989
11698,577961
11701,577299
11703,577730
11705,576150
11708,575035
11710,574445
11712,574872
11715,573296
11717,573451
11719,571719
11722,572196
11724,570694
11726,570897
11729,569856
11731,569847
11734,568440
11737,568699
11739,567677
11741,567256
11744,567911
11746,566946
11748,566056
11751,565797
11753,566477
11755,565217
11758,564909
11760,564753
11762,565532
11765,564319
11767,564873
11769,564070
11772,564970
11774,563799
11777,564470
11779,563870
11782,564748
11784,563763
11786,564436
11789,563852
11791,563845
11793,564863
11796,564677
11798,564142
11800,564328
11803,565244
11805,564310
11807,564650
11810,564962
11812,565693
11814,564860
11817,565697
11820,565681
11822,566255
11825,565499
11827,566386
11829,565966
11832,566928
11834,566203
11836,567135
11839,566675
11841,567272
11843,567625
11846,567896
11848,567500
11850,568109
11853,568236
11855,567667
11857,568227
11859,568968
11863,568983
11865,568432
11867,569397
11870,569824
11872,569708
11874,569275
11877,570226
11879,569823
11881,570558
11884,570133
11886,571157
11888,570771
11891,571641
11893,571452
11895,572111
11898,571750
11900,572750
11902,572417
11906,572058
11908,572682
11910,573687
11913,573241
11915,572904
11917,573944
11920,574461
11922,573887
11924,573501
11927,574490
11929,574046
11931,574366
11934,573908
11936,574874
11938,574321
11941,575270
11943,574542
11945,575011
11948,574405
11951,575242
11953,574529
11955,574102
11958,574267
11960,575208
11962,574369
11965,573912
11967,574750
11969,575059
11972,574173
11982,573846
11983,573351
11985,573351
11987,574191
11988,573495
11991,574424
11993,573586
11995,573080
11997,573931
11999,573254
12001,574149
12003,573289
12005,572850
12007,573654
12009,573020
12011,573994
12013,573112
12015,572696
12017,573549
12019,573871
12022,573022
12024,572664
12026,573514
12029,572936
12032,573965
12034,572824
12036,573634
12039,573120
12041,574149
12043,573396
12046,573969
12048,573369
12050,574445
12053,573707
12055,573473
12057,573809
12060,574907
12062,574114
12064,574011
12067,574682
12069,575394
12071,574586
12075,574626
12077,575117
12079,574821
12082,575899
12084,575300
12086,575625
12089,575353
12091,576548
12093,575793
12096,576143
12098,575986
12100,577193
12103,576430
12105,576662
12107,576628
12110,577833
12112,577098
12114,577427
12118,577433
12120,578545
12122,577787
12124,578229
12127,578014
12129,577945
12131,579206
12134,578907
12136,578660
12138,578597
12141,579841
12143,579157
12145,579233
12148,579273
12150,580451
12152,579719
12155,580324
12157,579807
12160,581070
12163,580370
12165,580914
12167,580314
12170,581645
12172,580904
12174,581528
12177,580885
12179,580990
12181,582206
12184,582065
12186,581362
12188,581458
12191,582723
12193,581945
12195,581887
12198,581946
12200,583221
12203,582459
12206,583155
12208,582414
12210,583670
12212,582920
12215,583566
12217,582778
12219,584177
12222,583390
12224,584003
12226,583254
12229,583360
12231,584638
12233,584522
12236,583698
12238,583858
12240,585095
12243,584317
12246,584205
12248,584347
12251,585676
12253,584878
12255,585580
12258,584972
12260,586268
12262,585509
12265,586196
12267,585427
12269,586821
12272,586039
12274,586793
12276,586028
12279,586190
12281,587335
12283,587294
12286,586461
12289,586603
12291,587681
12294,586874
12296,586592
12298,586598
12300,587591
12303,586519
12305,586977
12307,585699
12310,586417
12312,585142
12314,585324
12317,584050
12319,583791
12321,582725
12324,582842
12326,581324
12328,581088
12332,581167
12334,579743
12336,578234
12339,578029
12341,577920
12343,576532
12346,575092
12348,574981
12350,574763
12353,573459
12355,573630
12357,572153
12360,571844
12362,570676
12364,570921
12367,569551
12369,569761
12371,568424
12375,568753
12377,567483
12379,567861
12382,567501
12384,567116
12386,565933
12388,566430
12391,566060
12393,565357
12395,564858
12398,565525
12400,565159
12402,564564
12405,565233
12407,565054
12409,564704
12412,564135
12414,564914
12417,564000
12420,564891
12422,564163
12424,564964
12427,564106
12429,565095
12431,564663
12434,565264
12436,564440
12438,565481
12441,565085
12443,564847
12445,564987
12448,566102
12450,565659
12452,565375
12455,566319
12457,566730
12460,566242
12463,566065
12465,567043
12467,566334
12469,567487
12472,566733
12474,567739
12476,566928
12479,568110
12481,567666
12483,568368
12486,567714
12488,568859
12490,568360
12493,568165
12495,568371
12497,569526
12500,569009
12503,568776
12505,569730
12508,570190
12510,569722
12512,569448
12515,570400
12517,569702
12519,570942
12522,570256
12524,571240
12526,570499
12529,571725
12531,571288
12533,572098
12536,571394
12538,572614
12540,572151
12544,572050
12546,572199
12548,573432
12551,572919
12553,572749
12555,573637
12557,574075
12560,573527
12562,573354
12564,574108
12567,573357
12569,574537
12571,573829
12574,574401
12576,573656
12578,574762
12581,574139
12583,574427
12585,573645
12589,574785
12591,574171
12593,574106
12596,573632
12598,574775
12600,574047
12603,574079
12605,574148
12607,573491
12610,573858
12612,573891
12614,573887
12617,573212
12619,574304
12621,573735
12624,573500
12626,572888
12628,574017
12632,573329
12634,573214
12636,572634
12639,573745
12641,573061
12643,573322
12645,572400
12648,573596
12650,572914
12652,573255
12655,572690
12657,572256
12659,572860
12662,573245
12664,572678
12666,572246
12669,573529
12672,573362
12674,572647
12677,572374
12679,573635
12681,573103
12684,572914
12686,572640
12688,573976
12691,573381
12693,573992
12695,572958
12698,574300
12700,573784
12702,574452
12705,573644
12707,573413
12709,574292
12712,574897
12715,574116
12717,573919
12720,575316
12722,575429
12724,574665
12727,574519
12729,575907
12731,575446
12734,575311
12736,575196
12738,576560
12740,576034
12743,576760
12745,575817
12747,577173
12750,576716
12752,577416
12754,576620
12758,576469
12760,577319
12762,578045
12765,577313
12767,577096
12769,578522
12772,578736
12774,577946
12776,577817
12779,579209
12781,578737
12783,578603
12786,578491
12788,579897
12790,579321
12793,580020
12795,579119
12797,580481
12801,579938
12803,580613
12805,579842
12808,579749
12810,580519
12812,581205
12815,580356
12817,580366
12819,581586
12821,581694
12824,580872
12826,580879
12828,582032
12831,581474
12833,581393
12835,581499
12838,582489
12840,582014
12843,582667
12846,582059
12848,582809
12850,582424
12853,583192
12855,582341
12857,582572
12860,582811
12862,583588
12864,582763
12867,583080
12869,583540
12871,584007
12874,583160
12876,583620
12878,583948
12881,583713
12883,583749
12886,584228
12889,584452
12891,584326
12893,585081
12896,584302
12898,584979
12900,584814
12903,585644
12905,584873
12907,585518
12909,585381
12912,586278
12914,585461
12916,586165
12919,586033
12921,586816
12923,586013
12926,586703
12929,586499
12931,586416
12934,586375
12936,586965
12938,586636
12941,586477
12943,587140
12945,586060
12948,585931
12950,585593
12952,586014
12955,584803
12957,585097
12959,583679
12962,584004
12964,582492
12966,582682
12969,581615
12972,581137
12974,579558
12977,579693
12979,578580
12981,577902
12984,576476
12986,576623
12988,575466
12991,574839
12993,574985
12995,573502
12997,572539
13000,571974
13002,572168
13004,570748
13007,571024
13009,569496
13011,569844
13015,568489
13017,568891
13019,567978
13022,567870
13024,566773
13026,567199
13029,566441
13031,566089
13033,565494
13036,566071
13038,565370
13040,565135
13043,565671
13045,564681
13047,564669
13050,564604
13052,565255
13054,564266
13058,565013
13060,564450
13062,565178
13065,564287
13067,565082
13069,564564
13072,565349
13074,564540
13076,565394
13078,564958
13081,565081
13083,564964
13085,565901
13088,565512
13090,565815
13092,566242
13095,565601
13097,566181
13100,566622
13103,566879
13105,566341
13107,567316
13110,567428
13112,567558
13114,566994
13117,568049
13119,567620
13121,568213
13124,567691
13126,568705
13128,568392
13131,568987
13133,568908
13135,569544
13138,569124
13140,569828
13143,569614
13146,569211
13148,569871
13150,570652
13153,570293
13155,569977
13157,571099
13160,571562
13162,571204
13164,570846
13166,571993
13169,571666
13171,571970
13173,571760
13176,572856
13178,572554
13180,573470
13184,572846
13186,573693
13188,573314
13191,574299
13193,573541
13195,573295
13198,573994
13200,574986
13202,574132
13205,573906
13207,574923
13209,575396
13212,574435
13214,574162
13216,575225
13219,574726
13221,574620
13223,574252
13227,575282
13229,574734
13231,575578
13234,574471
13236,575094
13238,574545
13241,575354
13243,574268
13245,573928
13248,574328
13250,575134
13252,574019
13254,573598
13257,574626
13259,574751
13261,573601
13264,573243
13266,574227
13268,573559
13272,573265
13274,572867
13276,573819
13279,573150
13281,574012
13283,572972
13286,573598
13288,572949
13290,573765
13293,572681
13295,572420
13297,572791
13300,573677
13302,572630
13304,572304
13307,573314
13309,573709
13312,572666
13315,572375
13317,573406
13319,572847
13322,572774
13324,572579
13326,573639
13329,573086
13331,574099
13333,573067
13336,573922
13338,573420
13340,574422
13342,573457
13345,573492
13347,573908
13349,574975
13352,573962
13355,574064
13357,574738
13360,575520
13362,574535
13364,574781
13367,575262
13369,574974
13371,575145
13374,575498
13376,575783
13378,575550
13381,576735
13383,575856
13385,576409
13388,576194
13390,577346
13392,576400
13395,576854
13398,576819
13400,578006
13403,577056
13405,577589
13407,577588
13410,578664
13412,577755
13414,578262
13417,578129
13419,578134
13421,579273
13424,578919
13426,578685
13428,578749
13430,579899
13433,579008
13435,579272
13437,579327
13441,580491
13443,579579
13445,580250
13448,579895
13450,581074
13452,580155
13455,580853
13457,580398
13459,581633
13462,580719
13464,581400
13466,580900
13469,581012
13471,582197
13473,581978
13476,581390
13478,581462
13480,582695
13484,581708
13486,581921
13488,581987
13491,583176
13493,582187
13495,582885
13498,582434
13500,583619
13502,582645
13505,583372
13507,582817
13509,584161
13512,583137
13514,583865
13516,583310
13518,583375
13521,584592
13523,584414
13526,583819
13529,583930
13531,585130
13533,584235
13536,584520
13538,584572
13540,585740
13543,584784
13545,585531
13547,585012
13550,586237
13552,585212
13554,586008
13557,585391
13559,586533
13561,585463
13564,586114
13566,585315
13569,585235
13572,586189
13574,585351
13576,584431
13579,584189
13581,584883
13583,583408
13586,582586
13588,582157
13590,582547
13593,580997
13595,581140
13597,579497
13600,579651
13602,578043
13604,578216
13606,576891
13609,576492
13612,574956
13614,575025
13617,573820
13619,573627
13621,573372
13624,572218
13626,571000
13628,570924
13631,570685
13633,569364
13635,568573
13638,568650
13640,568349
13642,567163
13645,567575
13647,566795
13649,566497
13652,565499
13655,566006
13657,565105
13660,565192
13662,564301
13664,564905
13667,564109
13669,564666
13671,564294
13674,564305
13676,563618
13678,564280
13681,563944
13683,563323
13685,563480
13687,564234
13690,563868
13692,563336
13694,564235
13698,564546
13700,564166
13702,563685
13705,564635
13707,564088
13709,565070
13712,564199
13714,565253
13716,564771
13719,565737
13721,565294
13723,565941
13726,565466
13728,566479
13730,565963
13733,565667
13735,566197
13737,567290
13741,566775
13743,566431
13745,567456
13748,568067
13750,567563
13752,567215
13755,568274
13757,567769
13759,568886
13762,567989
13764,569062
13766,568517
13769,569691
13771,569141
13773,569831
13775,569456
13778,570522
13780,570048
13783,569753
13786,570387
13788,571595
13790,571077
13793,570752
13795,571829
13797,572515
13800,572012
13802,571776
13804,572824
13807,572448
13809,573512
13811,572720
13814,573698
13816,573248
13818,574328
13821,573763
13824,574362
13826,573805
13829,574897
13831,574293
13833,573928
13836,574139
13838,575162
13840,574483
13843,574126
13845,574852
13847,575236
13850,574492
13852,574197
13854,574750
13857,574181
13859,575114
13861,574144
13863,574494
13867,573986
13869,574897
13871,574101
13874,574092
13876,573601
13878,574557
13881,573796
13883,573703
13885,573302
13888,574227
13890,573445
13892,573437
13895,573361
13897,573901
13899,573152
13902,573251
13904,573013
13906,572665
13910,573734
13912,573087
13914,572711
13917,572505
13919,573580
13921,572820
13924,572671
13926,572509
13928,573547
13931,572861
13933,573253
13935,572564
13938,573737
13940,573065
13942,573506
13945,572902
13947,574031
13949,573317
13952,573781
13955,573154
13957,573180
13959,574383
13962,574235
13964,573552
13966,573644
13969,574846
13971,574278
13973,574109
13976,574221
13978,575479
13980,574849
13983,575352
13985,574752
13987,576008
13990,575425
13992,576053
13995,575318
13998,576729
14000,576150
14002,576703
14005,575966
14007,576129
14009,577391
14012,577465
14014,576706
14016,576839
14019,578125
14021,577516
14023,577414
14026,577532
14028,578779
14030,578201
14033,578848
14035,578179
14038,579501
14040,578881
14043,579557
14045,578788
14047,578994
14050,579556
14052,580213
14054,579396
14057,579538
14059,580805
14061,580807
14064,580028
14066,580143
14068,581381
14071,580788
14073,580650
14075,580734
14078,581971
14081,581300
14083,581922
14086,581321
14088,582480
14090,581766
14093,582453
14095,581604
14097,581862
14100,582288
14102,582940
14104,582113
14107,582403
14109,583369
14111,583411
14114,582665
14116,583035
14118,583808
14121,583238
14124,583081
14126,583549
14128,584144
14131,583696
14133,584354
14135,584067
14138,584553
14140,584091
14142,584822
14145,583998
14147,584655
14149,584605
14152,585386
14154,584603
14156,585291
14159,585519
14161,585937
14163,585202
14167,585963
14169,586035
14171,585738
14174,585773
14176,586597
14178,586570
14181,586277
14183,587057
14185,587118
14188,586925
14190,586602
14192,587362
14195,586457
14197,587268
14199,586480
14202,587093
14204,585997
14206,586645
14210,585947
14212,585767
14214,584443
14216,584896
14219,583903
14221,583130
14223,581815
14226,582100
14228,581004
14230,580078
14233,580231
14235,578924
14237,577678
14240,576772
14242,576811
14244,575221
14247,575522
14249,573475
14252,573553
14255,572035
14257,572413
14259,571229
14262,570670
14264,569149
14266,569644
14269,568581
14271,567813
14273,566822
14276,567350
14278,566342
14280,565688
14283,566169
14285,564912
14287,564639
14290,564180
14292,564617
14295,563547
14297,564298
14300,563111
14302,563760
14304,562690
14307,563578
14309,562869
14311,563253
14314,562354
14316,563284
14318,562647
14321,562462
14323,562248
14325,563337
14328,562732
14330,562611
14332,563345
14336,562547
14338,563031
14340,562969
14343,563741
14345,563016
14347,564096
14350,563642
14352,564417
14354,563657
14357,564752
14359,564286
14361,564935
14364,564276
14366,565477
14368,564907
14371,565105
14373,564951
14375,566165
14379,565649
14381,565931
14383,566234
14385,565650
14388,566350
14390,566683
14392,566828
14395,566301
14397,567518
14399,567390
14402,567408
14404,566928
14406,568164
14409,567694
14411,568063
14413,567637
14416,568918
14418,568414
14420,569011
14424,568478
14426,569780
14428,569325
14431,569902
14433,569578
14435,569356
14438,570172
14440,570864
14442,570440
14445,570162
14447,571513
14449,571845
14452,571276
14454,571025
14456,572381
14459,571950
14461,572021
14464,571684
14467,573001
14469,572467
14471,573093
14473,572090
14476,573307
14478,572716
14480,573472
14483,572624
14485,572286
14487,572863
14490,573542
14492,572613
14494,572294
14497,573497
14499,573496
14501,572493
14504,572177
14507,573342
14509,572687
14512,572325
14514,571976
14516,573134
14519,572523
14521,573087
14523,571665
14526,572811
14528,572159
14530,572808
14533,571755
14535,571419
14537,571889
14540,572494
14542,571555
14544,571167
14547,572361
14550,572443
14552,571431
14555,571048
14557,572279
14559,571616
14561,571415
14564,571119
14566,572308
14568,571689
14571,572416
14573,571467
14575,572379
14578,571774
14580,572571
14582,571658
14585,571420
14587,572038
14589,572864
14593,571970
14595,571816
14597,573039
14600,573268
14602,572397
14604,572267
14607,573487
14609,572972
14611,572950
14614,572885
14616,573938
14618,573532
14621,574372
14623,573506
14625,574515
14628,574164
14630,575028
14632,574170
14636,574380
14638,574774
14640,575720
14643,574872
14645,575117
14647,575789
14649,576434
14652,575559
14654,575932
14656,576418
14659,576201
14661,576273
14663,576717
14666,577070
14668,576911
14670,577880
14673,577033
14675,577782
14678,577674
14681,578604
14683,577772
14685,578299
14688,578317
14690,579245
14692,578393
14695,578991
14697,578990
14699,579925
14702,579058
14704,579696
14706,579583
14709,579562
14711,579695
14713,580290
14716,580152
14718,580174
14721,581124
14724,580232
14726,580657
14728,580666
14731,581687
14733,580809
14735,581529
14737,581182
14740,582272
14742,581368
14744,582121
14747,581689
14749,582743
14751,581884
14754,582616
14756,582274
14758,582245
14761,582383
14764,583189
14766,582766
14769,582787
14771,583747
14773,582881
14776,583236
14778,583271
14780,584250
14783,583396
14785,584195
14787,583857
14790,584864
14792,584030
14794,584806
14797,584411
14799,585469
14801,584624
14804,585446
14807,585025
14809,585049
14812,585202
14814,586048
14816,585663
14819,585673
14821,586712
14823,585837
14825,586211
14828,586277
14830,587211
14832,586295
14835,587021
14837,586504
14839,587315
14842,586224
14844,586843
14846,586152
14850,586523
14852,585344
14854,585651
14857,584698
14859,584332
14861,584633
14864,583305
14866,582176
14868,581740
14871,581763
14873,580165
14875,579010
14878,578576
14880,578363
14882,576838
14885,576889
14887,575354
14889,575018
14893,573525
14895,573627
14897,572470
14900,571815
14902,570469
14904,570701
14906,569595
14909,569534
14911,569042
14913,568119
14916,567181
14918,567277
14920,566694
14923,565694
14925,565266
14927,565576
14930,565013
14932,564130
14935,564678
14938,564340
14940,563740
14942,563081
14945,563757
14947,563091
14949,563084
14952,562542
14954,563275
14956,562731
14959,563439
14961,562837
14963,563226
14966,562746
14968,563483
14970,562883
14973,562504
14976,562961
14978,563934
14981,563201
14983,562923
14985,563927
14988,564449
14990,563732
14992,563466
14994,564483
14997,564152
14999,564434
15001,564224
15004,565203
15006,564869
15008,565954
15011,565207
15013,566023
15015,565688
15019,566721
15021,566023
15023,565804
15026,566496
15028,567536
15030,566773
15033,566568
15035,567649
15037,568359
15040,567557
15042,567334
15044,568413
15047,568086
15049,568377
15051,568178
15054,569282
15056,568924
15058,570006
15062,569230
15064,570152
15066,569798
15069,570957
15071,570156
15073,570016
15076,570797
15078,571976
15080,571162
15082,571034
15085,572086
15087,572902
15089,572042
15092,571932
15094,572973
15096,572618
15099,572819
15101,572683
15104,573614
15107,573259
15109,574268
15111,573398
15114,573989
15116,573588
15118,574618
15121,573616
15123,573461
15125,573660
15128,574605
15130,573580
15132,573504
15135,573889
15137,574435
15139,573447
15142,573390
15144,573663
15147,573296
15150,574176
15152,573166
15154,573244
15157,572905
15159,573839
15161,572767
15164,572831
15166,572484
15168,573454
15170,572352
15173,572499
15175,572112
15177,573103
15180,572017
15182,572239
15184,572015
15187,572758
15190,571717
15192,572047
15195,571682
15197,571529
15199,572583
15202,571944
15204,571600
15206,571518
15209,572564
15211,571557
15213,571504
15216,571540
15218,572710
15220,571754
15223,572239
15225,571775
15227,572904
15230,571957
15233,572583
15235,571971
15238,573297
15240,572383
15242,573076
15245,572389
15247,572526
15249,573729
15252,573585
15254,572934
15256,573076
15258,574378
15261,573436
15263,573535
15265,573768
15268,575006
15270,574102
15272,574859
15276,574423
15278,575679
15280,574832
15283,575627
15285,574948
15287,576400
15290,575501
15292,576287
15294,575626
15297,575878
15299,577141
15301,577066
15304,576376
15306,576595
15308,577876
15311,577000
15313,577139
15315,577362
15319,578611
15321,577731
15323,578498
15326,578092
15328,579260
15330,578393
15333,579206
15335,578541
15337,579961
15340,579065
15342,579901
15344,579174
15346,579442
15349,580667
15351,580512
15353,579771
15356,580028
15358,581254
15361,580367
15364,580389
15366,580688
15368,581815
15371,580926
15373,581713
15375,581293
15378,582351
15380,581449
15382,582231
15385,581520
15387,582845
15389,581956
15392,582798
15394,582071
15396,582527
15399,583307
15401,583376
15404,582679
15407,583258
15409,583830
15411,583031
15414,583276
15416,583966
15418,584367
15421,583727
15423,584636
15425,584698
15428,584978
15430,584393
15432,585291
15434,584570
15437,585425
15439,585002
15441,585966
15444,585216
15447,586057
15449,586110
15452,586415
15454,585684
15456,586557
15459,586429
15461,585734
15463,585697
15466,586463
15468,586052
15470,585295
15473,585980
15475,585488
15477,584751
15480,583835
15482,584269
15484,582974
15488,583371
15490,581325
15492,581638
15495,580220
15497,580552
15499,579403
15502,578528
15504,577085
15506,577384
15509,576170
15511,575086
15513,573941
15515,574313
15518,573131
15520,572083
15522,572436
15525,571529
15527,570434
15529,569428
15533,569816
15535,568531
15537,569063
15540,567181
15542,567636
15544,566553
15547,567200
15549,566222
15551,566110
15554,565053
15556,565841
15558,564994
15561,564343
15563,564086
15565,564900
15568,564149
15570,563570
15572,564377
15576,564485
15578,563824
15580,563282
15583,564156
15585,563343
15587,564417
15590,563358
15592,564278
15594,563566
15597,564659
15599,564120
15601,564715
15603,564000
15606,565138
15608,564615
15610,564331
15613,564703
15616,565848
15618,565362
15621,565071
15623,566036
15625,566609
15628,566140
15630,566036
15632,566833
15635,566263
15637,567470
15639,566910
15642,567590
15644,567085
15646,568313
15649,567827
15651,568427
15653,567922
15656,569165
15659,568676
15661,568779
15664,568804
15666,570067
15668,569635
15671,569777
15673,570092
15675,571041
15678,570571
15680,570870
15682,571008
15685,570728
15687,572072
15689,571974
15691,572032
15694,571833
15696,573215
15698,572761
15702,573036
15704,572882
15706,574214
15709,573764
15711,574241
15713,573837
15716,575140
15718,574632
15720,575053
15723,574707
15725,574514
15727,575212
15730,575654
15732,575115
15734,574869
15737,576084
15739,575883
15741,575222
15745,575027
15747,576188
15749,575461
15752,575037
15754,574812
15756,575984
15759,575240
15761,575621
15763,574501
15766,575604
15768,574884
15770,575242
15773,574357
15775,574074
15777,574445
15780,574858
15782,573852
15784,573609
15787,574668
15790,574293
15792,573380
15794,573093
15797,574225
15799,573482
15801,573030
15804,572733
15806,573922
15808,573222
15811,573591
15813,572484
15815,573660
15818,572993
15820,573464
15822,572529
15825,572342
15827,572876
15830,573453
15833,572558
15835,572448
15837,573663
15840,573551
15842,572702
15844,572642
15847,573910
15849,573296
15851,573039
15854,573012
15856,574282
15858,573699
15861,574292
15863,573448
15865,574717
15867,574177
15870,574808
15873,574027
15875,574061
15878,574697
15880,575403
15882,574622
15885,574718
15887,575876
15889,576040
15892,575279
15894,575480
15896,576561
15899,576136
15901,576075
15903,576343
15906,577248
15908,576855
15910,577589
15913,577167
15916,577864
15918,577520
15921,578339
15923,577633
15925,578109
15928,578436
15930,579208
15932,578407
15935,579008
15937,579362
15939,579903
15942,579162
15944,579797
15946,580037
15949,579894
15951,579866
15953,580538
15955,580711
15959,580540
15961,581312
15963,581251
15966,581252
15968,581100
15970,581895
15973,581116
15975,581890
15977,581718
15980,582500
15982,581725
15984,582540
15987,582377
15989,583115
15991,582278
15994,583219
15996,582916
15998,582878
16002,582874
16004,583739
16006,583450
16009,583439
16011,584206
16013,583477
16016,583979
16018,583985
16020,584778
16023,584052
16025,585018
16027,584622
16030,585407
16032,584678
16034,585667
16037,585207
16039,586045
16041,585338
16044,586333
16047,585948
16049,585909
16051,585897
16054,586916
16056,586486
16058,586462
16061,587223
16063,586340
16065,586754
16068,586646
16070,587369
16072,586411
16075,587263
16077,586233
16079,586708
16082,585551
16084,586258
16087,585283
16090,585057
16092,583757
16094,584153
16097,582988
16099,582287
16101,580881
16104,581166
16106,579895
16108,579164
16111,579177
16113,577594
16115,576551
16118,575902
16120,575852
16122,574333
16124,574666
16128,572729
16130,572707
16132,571250
16135,571607
16137,570516
16139,569914
16142,568547
16144,569003
16146,567947
16149,567619
16151,566362
16153,566906
16156,565952
16158,565750
16160,565738
16163,564656
16165,564507
16167,564469
16171,564389
16173,563439
16175,564288
16178,563680
16180,563532
16182,562726
16185,563699
16187,563007
16189,563149
16192,562506
16194,563499
16196,562944
16199,563369
16201,562585
16203,563674
16206,563121
16208,563672
16210,563374
16212,562863
16216,563535
16218,564265
16220,563815
16223,563422
16225,564599
16227,564912
16230,564410
16232,564106
16234,565327
16237,564896
16239,565075
16241,564817
16244,566102
16246,565555
16248,566578
16251,565868
16253,566865
16256,566430
16259,567323
16261,566571
16263,566360
16266,567203
16268,568154
16270,567374
16273,567172
16275,568454
16277,568951
16280,568108
16282,567978
16284,569220
16287,568780
16289,568996
16291,568800
16294,570097
16296,569648
16299,570723
16301,569892
16304,571153
16306,570653
16308,571692
16311,570948
16313,570840
16315,571749
16318,572761
16320,571945
16322,571817
16325,573144
16327,573713
16329,572802
16332,572602
16334,573832
16336,573372
16339,573482
16342,573209
16344,574455
16347,573901
16349,574804
16351,573741
16354,574721
16356,574082
16358,574932
16361,573889
16363,573581
16365,574004
16368,574876
16370,573831
16372,573468
16375,574542
16377,574653
16379,573593
16382,573229
16385,574280
16387,573598
16389,573286
16392,573030
16394,573984
16396,573267
16399,574060
16401,572984
16403,573636
16406,573004
16408,573847
16410,572738
16413,572605
16415,572724
16417,573615
16420,572536
16422,572543
16424,573098
16428,573456
16430,572373
16432,572487
16435,572903
16437,572530
16439,572446
16442,572639
16444,572981
16446,572687
16449,573600
16451,572625
16453,573136
16456,572933
16458,573918
16460,572928
16463,573293
16465,573265
16467,574327
16471,573387
16473,573783
16475,573885
16477,574858
16480,573916
16482,574438
16484,574449
16487,574273
16489,574479
16491,575102
16494,574924
16496,574863
16498,576018
16501,575179
16503,575609
16505,575610
16508,576764
16510,575830
16513,576584
16516,576307
16518,577461
16520,576591
16523,577334
16525,576995
16527,578258
16530,577367
16532,578130
16534,577776
16537,577818
16539,579035
16541,578933
16544,578548
16546,578555
16548,579741
16551,578833
16553,579165
16556,579292
16559,580457
16561,579611
16563,580342
16565,579972
16568,581143
16570,580239
16572,581033
16575,580657
16577,581774
16579,580869
16582,581664
16584,581173
16586,581290
16589,582379
16591,582237
16593,581806
16596,581849
16599,583018
16601,582061
16604,582352
16606,582420
16608,583538
16611,582625
16613,583363
16615,582984
16618,584007
16620,583125
16622,583891
16625,583412
16627,584605
16629,583643
16632,584442
16634,583962
16636,584106
16640,585161
16642,585023
16644,584563
16647,584712
16649,585761
16651,584865
16653,585227
16656,585437
16658,586318
16660,585456
16663,586332
16665,586144
16667,586965
16670,586123
16672,586982
16674,586479
16677,587502
16679,586740
16681,587609
16685,587077
16687,587535
16689,587874
16692,587920
16694,587298
16696,587727
16699,587796
16701,586957
16703,586797
16706,587110
16708,586804
16710,585718
16713,586097
16715,585202
16717,584618
16720,583289
16722,583552
16724,582304
16728,581382
16730,580043
16741,576493
16741,576670
16743,576670
16745,575389
16747,575418
16749,574311
16751,573103
16753,573318
16754,572042
16756,572231
16758,571103
16760,569976
16762,570247
16764,569131
16766,569475
16769,568339
16771,567348
16773,567707
16775,566680
16777,566087
16780,565243
16782,565690
16784,564824
16787,565432
16789,564357
16791,564269
16794,563500
16796,564130
16798,563289
16801,562632
16803,562613
16805,563429
16808,562574
16811,562087
16813,562868
16816,563081
16818,562364
16820,561889
16822,562715
16825,562148
16827,563132
16829,562048
16832,562975
16834,562504
16836,563430
16839,562792
16841,563371
16843,562944
16846,563984
16848,563304
16850,563039
16854,563566
16856,564654
16858,564007
16861,563724
16863,564678
16865,565345
16868,564708
16870,564450
16872,565468
16875,565082
16877,566163
16879,565196
16882,566193
16884,565781
16886,566846
16889,566178
16891,566924
16893,566490
16897,567563
16899,566868
16901,566665
16904,567124
16906,568264
16908,567575
16910,567481
16913,568278
16915,568968
16917,568294
16920,568279
16922,568978
16924,568596
16927,569773
16929,569230
16931,569800
16934,569558
16936,570662
16939,570080
16942,570591
16944,570399
16946,571574
16949,570935
16951,571165
16953,571244
16956,572379
16958,571750
16960,571979
16963,571952
16965,572983
16967,572299
16970,572555
16972,572439
16974,572294
16977,573398
16979,572936
16982,572580
16985,572450
16987,573556
16989,572738
16992,572644
16994,572488
16996,573557
16998,572743
17001,573017
17003,572376
17005,573443
17008,572635
17010,572910
17012,572304
17015,573220
17017,572344
17019,572688
17022,571906
17025,571830
17027,572885
17030,572450
17032,571682
17034,571587
17037,572652
17039,571835
17041,571435
17044,571398
17046,572511
17048,571633
17051,572151
17053,571290
17055,572398
17058,571585
17060,572042
17062,571244
17065,572437
17068,571641
17070,572181
17073,571430
17075,571401
17077,572568
17080,572359
17082,571576
17084,571633
17086,572805
17089,572156
17091,571910
17093,571960
17096,573252
17098,572496
17100,573149
17103,572464
17105,573699
17107,572942
17111,573692
17113,572949
17115,573093
17118,573591
17120,574329
17122,573594
17125,573689
17127,574986
17129,575012
17132,574250
17134,574426
17136,575725
17139,574956
17141,574940
17143,575193
17146,576439
17148,575731
17150,576436
17154,575999
17156,577190
17158,576485
17161,577234
17163,576495
17165,576843
17168,577242
17170,577993
17172,577282
17174,577653
17177,578602
17179,578747
17181,577985
17184,578492
17186,579269
17188,578698
17191,578734
17193,579274
17196,579807
17199,579335
17201,580099
17203,579985
17206,580427
17208,579961
17210,580753
17213,579975
17215,580696
17217,580531
17220,581400
17222,580579
17224,581364
17227,581572
17229,582010
17231,581207
17234,582015
17236,582107
17239,581767
17242,581778
17244,582617
17246,582583
17249,582229
17251,583070
17253,583205
17256,583004
17258,582711
17260,583627
17262,582837
17265,583784
17267,583306
17269,584171
17272,583374
17274,584399
17276,584119
17280,584752
17282,584030
17284,585102
17287,584707
17289,584466
17291,584614
17294,585731
17296,585325
17298,585145
17301,586084
17303,586443
17305,586012
17308,585777
17310,586738
17312,585987
17315,587087
17317,586353
17319,587254
17323,586444
17325,587446
17327,586917
17330,587402
17332,586434
17334,587317
17337,586542
17339,585990
17341,585389
17343,586074
17346,585040
17348,584261
17350,584561
17353,583577
17355,582408
17357,581425
17360,581546
17362,580040
17364,580346
17368,578069
17370,578079
17372,576529
17375,576859
17377,575541
17379,574657
17382,573114
17384,573492
17386,572193
17389,571321
17391,570043
17393,570462
17396,569290
17398,568513
17400,568744
17403,567391
17405,566838
17408,566158
17411,566477
17413,565207
17415,565930
17418,564483
17420,564797
17422,563652
17425,564459
17427,563637
17429,563579
17431,562625
17434,563514
17436,562789
17438,562643
17441,561990
17443,562991
17445,562299
17448,562317
17451,562528
17453,561875
17456,562401
17458,562501
17460,562542
17463,561999
17465,563122
17467,562895
17470,562867
17472,562406
17474,563621
17477,563209
17479,563362
17481,562916
17484,564264
17486,563794
17488,564233
17491,563592
17494,564932
17496,564541
17499,565043
17501,564757
17503,564439
17506,565304
17508,565847
17510,565479
17513,565206
17515,566552
17517,566651
17519,566169
17522,565939
17524,567220
17526,566812
17529,566878
17531,566665
17533,568049
17537,567614
17539,568330
17541,567485
17544,568837
17546,568411
17548,569157
17551,568479
17553,568358
17555,569404
17558,570139
17560,569411
17562,569304
17565,570795
17567,571140
17569,570426
17572,570350
17574,571789
17576,571393
17580,571389
17582,571278
17584,572695
17587,572270
17589,572990
17591,572045
17594,573380
17596,572902
17598,573525
17601,572776
17603,572530
17605,573305
17607,573934
17610,572996
17612,572789
17614,574014
17617,574029
17619,573073
17622,572773
17625,573956
17627,573313
17629,572928
17632,572594
17634,573783
17636,573127
17639,573647
17641,572305
17643,573405
17646,572736
17648,573245
17650,572276
17653,571943
17655,572331
17657,572859
17660,571861
17662,571560
17665,572681
17668,572468
17670,571477
17672,571271
17675,572276
17677,571634
17679,571260
17682,571119
17684,572046
17686,571406
17689,572020
17691,571108
17693,571863
17695,571366
17698,572025
17700,571141
17702,571254
17705,571449
17708,572196
17710,571289
17713,571554
17715,572016
17717,572436
17720,571600
17722,571923
17724,572363
17727,572025
17729,572000
17731,572418
17734,572698
17736,572502
17738,573309
17741,572552
17743,573250
17745,573124
17748,573940
17751,573139
17753,573701
17756,573685
17758,574576
17760,573789
17763,574399
17765,574463
17767,575315
17770,574504
17772,575139
17774,575068
17777,575092
17779,575260
17781,575964
17783,575814
17786,575856
17788,576718
17790,575996
17794,576530
17796,576567
17798,577470
17801,576746
17803,577463
17805,577254
17808,578123
17810,577385
17812,578147
17815,577865
17817,578819
17819,578077
17822,578877
17824,578530
17826,578610
17829,578703
17831,579528
17833,579121
17837,579220
17839,580117
17841,579298
17844,579754
17846,579830
17848,580673
17851,579865
17853,580691
17855,580344
17858,581228
17860,580455
17862,581207
17865,580830
17867,581766
17869,581004
17871,581827
17874,581440
17876,581472
17879,581521
17882,582351
17884,581946
17886,582058
17889,582890
17891,582113
17893,582594
17896,582675
17898,583531
17900,582775
17903,583650
17905,583320
17907,584242
17910,583419
17912,584273
17914,583838
17917,584861
17920,584093
17922,584953
17925,584556
17927,584737
17929,584655
17932,585503
17934,585057
17936,585287
17939,585812
17941,584988
17943,585196
17946,585390
17948,585548
17950,584634
17952,585158
17955,584411
17957,584277
17959,583131
17963,583524
17965,582558
17967,581822
17970,580537
17972,580766
17974,579564
17977,579470
17979,578641
17981,577524
17984,576348
17986,576170
17988,575212
17991,573986
17993,573040
17995,572950
17998,571982
18000,570861
18002,571055
18006,570054
18008,568993
18010,567966
18013,568344
18015,567349
18017,566512
18020,565658
18022,566054
18024,565192
18027,565623
18029,564606
18031,564383
18034,563614
18036,564191
18038,563131
18040,562552
18043,562574
18045,563217
18048,562203
18051,561704
18053,562546
18055,562734
18058,561773
18060,561411
18062,562290
18065,561807
18067,561743
18069,561490
18072,562488
18074,562002
18076,562876
18079,562014
18081,562817
18083,562455
18086,563370
18088,562528
18091,562303
18094,563041
18096,564038
18098,563166
18101,562992
18103,564108
18105,564823
18108,564027
18110,563774
18112,564890
18115,564512
18117,564745
18119,564621
18122,565775
18124,565342
18126,566412
18128,565573
18131,566514
18134,566193
18136,567274
18139,566426
18141,566351
18143,567027
18146,568164
18148,567250
18150,567177
18153,568289
18155,569015
18157,568249
18160,568096
18162,569224
18164,568921
18167,569260
18169,569253
18171,570342
18174,570054
18177,571235
18179,570390
18182,571391
18184,571121
18186,572303
18189,571486
18191,571540
18193,572134
18196,573273
18198,572460
18200,572492
18203,573115
18205,574001
18207,573058
18210,573235
18212,573686
18214,573394
18216,573443
18220,573608
18222,573907
18224,573587
18227,574588
18229,573544
18231,573782
18234,573506
18236,574455
18238,573453
18241,573672
18243,573378
18245,574365
18248,573223
18250,573516
18252,573304
18255,574031
18257,572959
18259,573244
18263,572893
18265,572708
18267,573732
18270,572930
18272,572494
18274,572335
18277,573303
18279,572274
18281,572122
18284,572038
18286,573023
18288,571975
18291,572397
18293,571842
18295,572884
18298,571798
18300,572364
18302,571758
18305,572802
18308,571801
18310,572407
18312,571760
18315,571788
18317,572918
18319,572594
18322,571974
18324,572059
18326,573146
18329,572222
18331,572344
18333,572384
18336,573587
18338,572628
18340,573358
18343,572883
18345,574054
18348,573180
18351,573890
18353,573309
18355,574625
18358,573770
18360,574512
18362,573923
18365,574102
18367,575284
18369,575185
18372,574620
18374,574803
18376,576084
18379,575177
18381,575409
18383,575549
18386,576793
18388,575929
18391,576756
18393,576368
18396,577593
18398,576657
18400,577534
18403,576913
18405,578416
18407,577474
18410,578341
18412,577788
18414,577993
18417,579173
18419,579084
18421,578518
18424,578766
18426,579921
18428,579081
18432,579289
18434,579518
18436,580661
18439,579742
18441,580573
18443,580271
18446,581271
18448,580395
18450,581279
18453,580640
18455,581875
18457,581047
18460,581893
18462,581195
18464,581677
18467,582337
18469,582396
18471,581760
18475,582351
18477,582870
18479,582114
18481,582392
18484,582971
18486,583364
18488,582680
18491,583469
18493,583540
18495,583774
18498,583113
18500,584060
18502,583425
18505,584343
18507,583695
18509,584619
18512,584034
18514,584881
18516,584784
18520,585161
18522,584624
18524,585473
18527,585365
18529,584823
18531,585222
18534,586145
18536,585926
18538,585451
18541,586409
18543,586837
18545,586589
18548,586132
18550,587087
18552,586517
18555,587551
18557,586718
18560,587754
18562,587148
18565,588173
18567,587661
18569,588052
18572,587339
18574,588205
18576,587610
18579,586976
18581,586764
18583,587430
18586,586529
18588,585594
18590,585988
18593,585263
18595,584046
18597,582947
18600,583168
18603,581793
18605,581984
18608,579411
18610,579546
18612,578089
18615,578329
18617,576954
18619,575852
18622,574460
18624,574718
18626,573427
18629,572273
18631,571124
18633,571515
18636,570263
18638,569167
18640,569448
18643,568715
18646,567511
18648,566571
18650,566958
18653,565843
18655,566430
18657,564548
18660,565058
18662,564062
18664,564684
18667,563794
18669,563755
18671,562796
18674,563574
18676,562664
18678,562178
18681,562062
18683,562833
18685,562182
18689,561716
18691,562452
18693,562693
18696,562000
18698,561657
18700,562357
18703,561716
18705,562818
18707,562033
18710,562657
18712,562139
18714,563238
18717,562645
18719,563050
18721,562633
18724,563809
18726,563290
18728,563309
18732,563322
18734,564502
18736,563978
18738,564135
18741,564355
18743,565269
18745,564792
18748,565003
18750,565038
18752,564872
18755,566066
18757,565827
18759,565686
18762,565575
18764,566806
18766,566281
18769,566462
18771,566345
18774,567518
18777,567051
18779,567457
18781,567089
18784,568311
18786,567794
18788,568240
18791,567894
18793,569108
18795,568592
18798,569110
18800,568706
18802,568767
18805,570075
18807,570187
18809,569621
18812,569729
18814,571013
18817,570596
18820,570599
18822,570718
18824,572006
18826,571510
18829,572078
18831,571489
18833,572774
18836,572293
18838,572849
18840,572059
18843,572157
18845,572800
18847,573342
18850,572494
18852,572478
18854,573695
18857,573558
18860,572610
18862,572549
18865,573696
18867,573028
18869,572617
18872,572499
18874,573603
18876,572912
18879,573366
18881,572322
18883,573423
18886,572670
18888,573083
18890,572168
18893,572010
18895,572369
18897,572791
18900,571839
18903,571711
18905,572765
18908,572471
18910,571464
18912,571457
18914,572507
18917,571703
18919,571273
18921,571206
18924,572296
18926,571602
18928,572061
18931,571127
18933,572146
18935,571475
18938,572001
18940,571150
18942,571122
18946,571487
18948,572040
18950,571278
18953,571369
18955,572352
18957,572314
18960,571445
18962,571730
18964,572549
18967,571995
18969,571829
18971,572186
18974,572876
18976,572491
18978,573142
18981,572798
18983,573368
18985,572912
18989,573631
18991,572861
18993,573409
18996,573559
18998,574278
19000,573456
19002,574177
19005,574480
19007,574983
19009,574192
19012,574908
19014,575137
19016,574921
19019,574929
19021,575718
19023,575828
19026,575666
19028,576470
19031,576504
19034,576548
19036,576462
19038,577278
19041,576487
19043,577356
19045,577116
19048,577969
19050,577218
19052,578145
19055,577933
19057,578705
19059,577886
19062,578873
19064,578654
19066,578594
19069,578657
19072,579640
19074,579292
19077,579228
19079,580083
19081,580353
19084,579892
19086,579858
19088,580682
19090,579973
19093,580958
19095,580492
19097,581287
19100,580500
19102,581558
19104,581074
19107,581876
19109,581087
19111,582110
19115,581629
19117,581647
19119,581639
19122,582701
19124,582226
19126,582175
19129,582988
19131,582220
19133,582713
19136,582746
19138,583547
19140,582757
19143,583829
19145,583316
19147,584109
19150,583378
19152,584456
19154,583968
19158,584790
19160,584046
19162,585091
19165,584586
19167,584660
19169,584703
19171,585837
19174,585353
19176,585371
19178,586237
19181,585383
19183,586034
19185,586038
19188,586786
19190,586032
19192,587088
19195,586547
19197,587232
19200,586358
19203,587376
19205,586650
19207,586990
19210,585878
19212,586719
19214,585762
19217,585518
19219,584240
19221,584709
19224,583560
19226,583134
19228,582793
19231,581372
19233,580340
19235,579882
19238,579206
19240,577847
19243,578090
19246,576358
19248,575596
19250,574193
19253,574583
19255,573287
19257,572131
19259,570869
19262,571385
19264,570203
19266,570059
19269,568073
19271,568702
19273,567520
19276,567498
19278,566554
19280,565699
19283,565374
19286,565648
19288,564736
19291,564050
19293,564859
19295,564350
19298,563499
19300,562831
19302,563742
19305,562989
19307,562657
19309,562119
19312,563175
19314,562474
19316,563168
19319,561828
19321,562929
19323,562322
19326,563070
19329,562216
19331,561917
19334,562559
19336,563313
19338,562512
19341,562230
19343,563454
19345,563835
19348,563041
19350,562836
19352,564089
19354,563615
19357,563647
19359,563512
19361,564839
19364,564384
19366,565258
19368,564461
19372,565624
19374,565164
19376,566073
19379,565320
19381,565154
19383,566000
19386,566975
19388,566150
19390,565936
19393,567262
19395,567796
19397,566941
19400,566800
19402,568167
19404,567730
19407,567881
19409,567754
19411,569042
19415,568685
19417,569578
19419,568788
19422,570070
19424,569618
19426,570647
19429,569779
19431,569687
19433,570667
19435,571606
19438,570799
19440,570740
19442,572054
19445,572594
19447,571747
19449,571686
19452,572915
19454,572517
19457,572626
19460,572542
19462,573720
19464,573237
19467,574236
19469,573311
19471,574284
19474,573752
19476,574682
19478,573796
19481,573780
19483,573989
19485,574946
19488,573858
19490,573962
19492,574484
19495,574849
19497,573754
19500,573792
19503,574184
19505,573737
19507,573410
19510,573535
19512,573745
19514,573275
19517,574116
19519,573046
19521,573246
19523,572878
19526,573679
19528,572593
19530,572793
19533,572369
19535,573143
19537,572035
19540,572346
19543,572236
19545,572741
19548,571642
19550,572005
19552,571782
19555,571533
19557,571317
19559,571739
19562,571465
19564,571254
19566,572175
19569,571110
19571,571305
19573,571141
19576,572157
19578,571189
19580,571753
19584,571324
19586,572320
19588,571366
19591,572039
19593,571646
19595,572595
19598,571767
19600,572406
19602,571987
19605,572056
19607,572225
19609,572951
19611,572557
19614,572630
19616,573736
19618,572875
19621,573235
19623,573312
19625,574482
19629,573593
19631,574335
19633,574013
19636,575167
19638,574285
19640,575155
19643,574673
19645,575870
19647,575054
19650,575827
19652,575370
19654,575473
19657,575771
19659,576602
19661,576174
19664,576272
19666,577387
19668,576460
19672,576840
19674,576985
19676,578081
19679,577217
19681,578035
19683,577736
19686,578880
19688,578006
19690,578807
19693,578374
19695,579636
19697,578748
19699,579601
19702,579140
19704,579292
19706,580276
19709,580241
19712,579801
19714,579937
19717,580980
19719,580116
19721,580488
19724,580782
19726,581566
19728,580722
19731,581570
19733,581421
19735,582062
19738,581286
19740,582091
19742,581638
19745,582573
19747,581768
19749,582661
19752,582207
19755,582757
19757,583048
19760,583233
19762,582759
19764,583342
19767,583573
19769,582886
19771,583388
19774,584039
19776,584114
19778,583523
19780,584507
19783,584732
19785,584688
19787,584106
19790,585021
19792,584574
19794,585143
19798,584625
19800,585556
19802,585078
19805,585834
19807,585453
19809,585819
19812,585212
19814,585965
19816,585392
19819,584728
19821,584707
19823,585282
19826,584394
19828,583556
19830,584019
19833,583384
19835,582126
19837,581085
19841,581325
19843,580181
19845,578992
19848,577829
19850,578029
19852,576753
19855,576948
19857,575400
19859,574509
19862,573270
19864,573460
19866,572040
19868,571031
19871,570147
19873,570420
19875,569074
19878,568059
19880,568397
19883,567774
19886,566482
19888,565598
19890,566061
19893,565061
19895,564447
19897,563684
19900,564285
19902,563417
19904,564111
19907,562985
19909,562982
19911,562258
19914,563060
19916,562082
19918,561537
19921,561625
19923,562479
19926,561610
19929,561155
19931,561994
19933,562363
19936,561548
19938,561164
19940,562070
19943,561580
19945,562597
19947,561527
19950,562426
19952,561965
19954,563065
19956,562300
19959,563009
19961,562680
19963,563766
19966,563088
19969,562915
19971,563400
19974,564529
19976,563887
19978,563818
19981,564641
19983,565435
19985,564775
19988,564799
19990,565421
19992,565229
19995,566352
19997,565851
19999,566304
20002,566104
20004,567314
20006,566631
20009,567187
20012,567024
20014,568290
20017,567580
20019,567922
20021,568059
20024,569294
20026,568668
20028,569057
20031,569130
20033,570387
20035,569838
20038,570331
20040,570259
20042,570334
20044,571595
20047,571427
20049,571339
20051,571416
20055,572775
20057,572139
20059,572446
20062,572527
20064,573881
20066,573201
20069,573729
20071,573400
20073,574631
20076,573887
20078,574445
20080,573923
20083,575176
20085,574365
20087,574942
20090,574187
20092,574225
20094,575354
20098,574922
20100,574202
20102,574112
20105,575193
20107,574347
20109,573886
20112,573807
20114,574892
20116,573937
20119,574406
20121,573457
20123,574440
20126,573518
20128,573961
20130,573062
20132,573996
20135,573022
20137,573480
20140,572596
20143,572511
20145,573585
20147,573059
20150,572185
20152,572105
20154,573193
20157,572246
20159,571869
20161,571860
20164,573003
20166,572069
20168,572614
20171,571782
20173,572958
20175,572041
20178,572584
20180,571688
20183,572997
20186,572135
20188,572745
20190,571890
20193,572005
20195,573181
20197,573004
20200,572231
20202,572325
20204,573570
20207,572757
20209,572632
20211,572858
20214,574009
20216,573257
20218,574063
20220,573459
20224,574582
20226,573841
20228,574648
20231,573860
20233,574226
20235,574550
20238,575367
20240,574602
20242,575040
20245,575970
20247,576109
20249,575378
20252,575965
20254,576652
20256,576032
20259,576187
20261,576807
20263,577434
20267,576871
20269,577712
20271,577733
20274,578167
20276,577639
20278,578517
20281,577844
20283,578641
20285,578523
20288,579398
20290,578705
20292,579495
20295,579687
20297,580121
20299,579413
20302,580291
20304,580387
20306,579941
20308,580166
20312,581105
20314,581066
20316,580748
20319,581651
20321,581903
20323,581775
20326,581404
20328,582354
20330,581565
20333,582597
20335,582043
20337,583004
20340,582276
20342,583253
20344,582960
20347,583561
20349,582831
20352,583939
20355,583505
20357,583218
20359,583383
20362,584477
20364,584005
20366,583769
20369,584702
20371,585059
20373,584634
20376,584373
20378,585329
20380,584597
20383,585696
20385,584960
20387,585898
20389,585142
20392,586319
20395,585817
20397,586559
20400,585781
20402,586959
20404,586472
20407,586178
20409,586477
20411,587704
20414,587202
20416,586899
20418,587933
20421,588384
20423,587837
20425,587586
20428,588554
20430,587765
20432,588919
20435,588043
20438,588887
20440,587968
20443,588961
20445,588221
20447,588304
20450,587142
20452,587851
20454,586781
20457,585986
20459,584751
20461,585206
20464,583836
20466,582807
20468,582897
20471,581482
20473,580062
20475,578969
20477,578892
20481,577221
20483,577485
20485,575031
20488,574877
20490,573345
20492,573624
20495,572300
20497,571309
20499,569882
20502,570359
20504,569093
20506,568497
20509,566970
20511,567552
20513,566453
20516,566051
20518,565718
20520,564688
20524,564439
20526,564157
20528,563849
20531,562962
20533,563810
20535,562800
20538,562489
20540,561773
20542,562748
20545,561985
20547,561681
20549,561068
20552,562139
20554,561482
20556,561674
20559,560855
20561,562058
20563,561468
20566,561784
20569,561340
20571,560936
20573,561578
20576,562059
20578,561637
20580,561352
20583,562647
20585,562647
20587,562117
20590,561889
20592,563308
20594,562781
20597,562825
20599,562615
20601,564012
20604,563561
20606,564199
20609,563455
20612,564837
20614,564391
20616,565059
20619,564411
20621,564254
20623,565215
20626,565901
20628,565253
20630,565076
20633,566454
20635,566693
20637,566015
20640,565848
20642,567220
20644,566780
20647,566786
20649,566654
20652,568073
20654,567637
20657,568369
20659,567493
20661,568992
20664,568580
20666,569269
20668,568627
20671,568580
20673,569533
20675,570352
20678,569703
20680,569610
20682,571008
20685,571328
20687,570631
20689,570544
20692,571978
20695,571510
20697,571527
20700,571372
20702,572774
20704,572310
20707,572960
20709,572001
20711,573320
20714,572749
20716,573411
20718,572495
20721,572350
20723,572977
20725,573590
20728,572660
20730,572486
20732,573595
20736,573525
20738,572537
20740,572407
20742,573443
20745,572761
20747,572314
20749,572192
20752,573070
20754,572429
20756,572971
20759,571896
20761,572623
20763,572067
20766,572528
20768,571580
20770,571598
20773,571640
20775,572130
20777,571152
20781,571308
20783,571724
20785,571921
20788,570902
20790,571098
20792,571393
20795,571016
20797,570760
20799,571061
20802,571214
20804,570942
20806,571595
20809,570702
20811,571136
20813,570864
20816,571639
20818,570755
20820,571259
20824,571133
20826,571852
20828,570986
20830,571667
20833,571566
20835,572204
20837,571451
20840,572071
20842,571952
20844,571938
20847,571907
20849,572606
20851,572434
20854,572506
20856,573294
20858,572552
20861,573134
20864,573134
20866,573994
20869,573212
20871,574084
20873,573890
20876,574767
20878,574048
20880,574819
20883,574542
20885,575511
20887,574832
20890,575613
20892,575319
20894,575451
20897,575614
20899,576491
20901,576153
20904,576220
20907,577156
20909,576417
20912,576966
20914,577131
20916,577956
20918,577204
20921,578095
20923,577908
20925,578750
20928,578054
20930,578924
20932,578544
20935,579515
20937,578858
20939,579709
20942,579379
20944,579434
20946,579548
20950,580456
20952,580119
20954,580150
20957,581030
20959,580288
20961,580781
20964,580868
20966,581689
20968,580920
20971,581846
20973,581554
20975,582388
20978,581559
20980,582494
20982,582066
20985,583016
20987,582209
20989,583102
20993,582713
20995,582915
20997,582832
20999,583774
21002,583294
21004,583630
21006,584127
21009,583438
21011,583930
21013,584302
21016,584728
21018,584106
21020,585094
21023,585073
21025,585394
21027,584789
21030,585773
21032,585408
21035,586025
21038,585525
21040,586476
21042,586092
21045,586717
21047,586220
21049,587233
21052,586808
21054,587432
21056,587265
21059,586738
21061,587196
21063,587745
21066,587226
21068,586632
21070,587380
21073,587060
21075,586206
21078,585393
21081,585902
21083,584776
21085,583706
21087,582571
21090,582851
21092,581533
21094,581548
21097,580022
21099,578951
21101,577691
21104,577674
21106,576001
21108,574801
21111,573796
21113,573893
21115,572260
21118,571164
21121,571514
21123,570527
21126,569008
21128,568081
21130,568415
21133,567314
21135,566226
21137,565393
21140,565937
21142,564976
21144,565414
21147,564078
21149,563976
21151,563173
21154,563798
21156,562492
21158,561956
21161,561899
21164,562676
21166,561446
21169,561000
21171,561842
21173,561963
21175,560910
21178,560546
21180,561461
21182,560944
21185,560777
21187,560462
21189,561470
21192,561005
21194,561920
21196,560968
21199,561738
21201,561359
21203,562369
21207,561471
21209,561273
21211,561896
21214,562980
21216,562114
21218,561951
21221,563108
21223,563806
21225,562900
21228,562806
21230,563908
21232,563597
21235,563769
21237,563714
21239,564783
21242,564437
21244,565506
21246,564695
21250,565713
21252,565355
21254,566450
21257,565578
21259,565660
21261,566257
21263,567367
21266,566524
21268,566622
21270,567374
21273,568298
21275,567474
21277,567724
21280,568290
21282,568136
21284,568542
21287,568861
21289,569316
21292,569224
21295,570418
21297,569606
21299,570362
21302,570325
21304,571569
21306,570781
21309,571198
21311,571398
21313,572615
21316,571767
21318,572268
21320,572255
21323,573451
21325,572592
21327,573113
21330,573035
21332,572995
21335,573199
21338,573656
21340,573345
21342,573273
21345,574415
21347,573411
21349,573386
21351,573318
21354,574370
21356,573257
21358,573737
21361,573100
21363,574076
21365,572965
21368,573383
21370,572789
21372,573599
21376,572472
21378,572961
21380,572195
21383,572119
21385,573078
21387,572399
21390,571690
21392,571533
21394,572500
21397,571432
21399,571144
21401,571111
21404,572088
21406,570913
21408,571472
21411,570635
21413,571677
21415,570536
21419,571128
21421,570427
21423,571453
21426,570414
21428,571050
21430,570297
21433,570284
21435,571410
21437,571017
21439,570302
21442,570335
21444,571511
21446,570498
21449,570519
21451,570606
21453,571743
21456,570762
21458,571513
21460,571020
21464,572182
21466,571216
21468,571994
21471,571371
21473,572687
21475,571784
21478,572597
21480,571993
21482,572161
21485,573376
21487,573265
21498,573977
21499,573387
21500,573387
21502,573695
21505,574806
21507,573936
21509,574807
21511,574258
21513,574597
21515,575583
21517,574751
21519,575607
21520,575048
21522,575497
21524,576355
21526,575590
21528,576467
21530,575887
21532,576454
21534,577088
21537,577307
21539,576699
21541,577332
21544,577870
21547,577180
21549,577550
21552,578192
21554,578582
21556,577929
21559,578870
21561,579041
21563,579264
21566,578680
21568,579608
21570,579111
21573,579916
21575,579435
21577,580369
21580,579810
21582,580621
21584,580604
21587,581066
21590,580508
21592,581351
21595,581236
21597,580782
21599,581197
21602,582126
21604,581887
21606,581418
21608,582424
21611,582866
21613,582510
21615,582141
21618,583076
21620,582507
21622,583173
21625,582806
21627,583816
21629,583304
21633,584333
21635,583924
21637,584581
21640,584036
21642,585103
21644,584618
21647,584328
21649,584761
21651,585834
21654,585348
21656,585019
21658,585975
21661,586513
21663,585978
21665,585615
21668,586544
21670,585939
21672,586947
21676,585806
21678,586559
21680,585812
21683,586633
21685,585750
21687,585505
21690,584441
21692,584913
21694,583716
21696,582634
21699,581587
21701,581853
21703,580457
21706,579213
21708,579337
21710,578032
21713,576548
21715,575241
21718,575350
21721,573948
21723,574149
21725,571553
21728,571690
21730,570360
21732,570673
21735,569399
21737,568508
21739,567253
21742,567661
21744,566469
21746,565561
21749,564660
21751,565138
21753,564081
21756,563323
21758,563657
21761,563314
21764,562336
21766,561699
21768,562085
21771,561213
21773,561951
21775,560631
21778,560974
21780,560320
21782,561263
21784,560451
21787,560374
21789,559854
21791,560838
21794,560170
21796,560018
21798,559774
21801,560836
21804,560241
21806,560356
21809,560340
21811,561246
21813,560668
21816,560866
21818,560810
21820,560609
21823,561794
21825,561521
21827,561452
21830,561357
21832,562569
21834,562092
21837,562232
21839,562166
21841,563480
21844,562957
21847,563411
21849,563099
21852,564362
21854,563922
21856,564366
21859,564028
21861,565314
21863,564855
21866,565417
21868,564988
21870,565107
21872,566356
21875,566459
21877,565935
21879,566031
21882,567334
21884,566892
21886,566979
21890,567123
21892,568435
21894,568054
21897,568727
21899,568337
21901,569666
21904,569266
21906,569960
21908,569409
21911,570980
21913,570520
21915,571187
21918,570580
21920,570733
21922,572146
21925,572376
21927,571639
21929,571799
21933,573095
21935,572547
21937,572451
21940,572486
21942,573745
21944,573067
21947,573648
21949,572822
21951,574031
21954,573287
21956,573858
21958,572892
21960,572887
21963,573141
21965,573622
21967,572640
21970,572566
21972,573591
21975,573201
21978,572181
21980,572058
21982,573157
21985,572320
21987,571656
21989,571566
21992,572555
21994,571740
21996,572108
21999,571031
22001,572006
22003,571184
22006,571621
22008,570580
22010,570587
22013,570730
22016,571221
22018,570247
22021,570292
22023,571143
22025,570888
22028,569968
22030,570083
22032,570848
22035,570260
22037,569824
22039,570141
22042,570759
22044,570203
22046,570745
22048,570265
22051,570758
22053,570316
22055,570957
22059,570078
22061,570594
22063,570564
22066,571304
22068,570489
22070,571081
22073,571374
22075,571767
22077,571003
22080,571684
22082,571842
22084,571571
22087,571600
22089,572429
22091,572434
22094,572276
22096,573046
22098,573202
22102,573072
22104,573001
22106,573795
22109,572955
22111,573936
22113,573772
22116,574537
22118,573868
22120,574854
22123,574642
22125,575391
22127,574679
22130,575739
22132,575459
22134,575417
22136,575533
22139,576600
22141,576318
22144,576342
22147,577177
22149,577551
22151,577128
22154,577141
22156,578034
22158,577303
22161,578381
22163,577978
22165,578858
22168,578142
22170,579224
22172,578772
22175,579618
22177,578875
22179,579962
22182,579531
22184,579514
22187,579622
22190,580694
22192,580217
22194,580232
22197,581161
22199,581398
22201,580921
22204,580894
22206,581728
22208,580959
22211,582136
22213,581610
22215,582455
22217,581658
22220,582720
22222,582262
22224,583084
22227,582286
22230,583362
22232,582901
22235,582883
22237,582961
22239,584102
22242,583568
22244,583554
22246,584451
22249,583597
22251,584211
22253,584241
22256,585114
22258,584329
22260,585496
22263,585062
22265,585810
22267,585110
22270,586234
22273,585712
22275,586541
22278,585729
22280,586775
22282,586203
22285,586387
22287,585927
22289,586947
22292,586212
22294,586220
22296,586243
22299,585167
22301,584909
22303,584701
22305,584204
22308,582921
22310,583329
22312,581549
22316,580675
22318,579210
22320,579420
22323,577921
22325,576434
22327,574910
22330,575165
22332,573735
22334,573362
22337,570836
22339,571248
22341,569871
22344,569616
22346,568450
22348,567301
22351,566570
22353,566502
22355,565350
22359,564280
22361,564891
22363,563867
22366,562781
22368,561886
22370,562564
22373,561607
22375,560781
22377,560009
22380,560869
22382,560036
22384,560491
22387,558793
22389,559746
22391,558906
22393,559464
22396,558508
22398,557955
22401,558317
22404,559018
22406,558057
22408,557634
22411,558784
22413,558903
22415,557956
22418,557676
22420,558871
22422,558314
22425,558267
22427,557986
22429,559275
22432,558736
22434,559601
22436,558517
22439,559813
22441,559330
22444,560253
22447,559409
22449,559218
22451,560138
22454,561040
22456,560173
22458,560067
22461,561407
22463,561881
22465,561084
22468,560901
22470,562202
22472,561787
22475,561893
22477,561787
22479,563059
22481,562597
22484,563604
22487,562627
22489,563883
22492,563460
22494,564390
22496,563526
22499,563487
22501,564297
22503,565283
22506,564451
22508,564373
22510,565669
22513,566263
22515,565448
22517,565437
22520,566718
22522,566353
22524,566490
22528,566580
22530,567730
22532,567402
22535,568418
22537,567577
22539,568711
22542,568346
22544,569348
22546,568495
22549,568695
22551,569104
22553,570136
22556,569229
22558,569373
22560,569981
22563,570581
22565,569670
22567,569873
22569,570292
22573,569888
22575,569822
22577,570019
22580,570223
22582,569890
22584,570718
22587,569688
22589,570000
22591,569667
22594,570448
22596,569396
22598,569730
22601,569293
22603,570095
22605,569002
22608,569352
22610,569138
22612,569710
22616,568646
22618,568926
22620,568688
22623,568457
22625,568230
22627,568651
22630,568301
22632,568079
22634,569017
22637,567919
22639,568048
22641,567820
22644,568738
22646,567670
22648,568190
22651,567688
22653,568629
22656,567597
22658,568215
22661,567772
22663,568655
22665,567663
22668,568273
22670,567815
22672,567773
22675,567797
22677,568514
22679,568038
22682,568049
22684,569054
22686,568140
22689,568393
22691,568477
22693,569518
22696,568638
22699,569394
22701,569047
22704,570127
22706,569234
22708,570085
22711,569636
22713,570888
22715,569962
22718,570797
22720,570409
22722,570467
22725,570755
22727,571624
22729,571267
22732,571406
22734,572532
22736,571703
22739,572143
22742,572304
22744,573393
22746,572564
22749,573424
22751,573173
22753,574273
22756,573465
22758,574257
22760,573838
22763,575093
22765,574284
22767,575145
22770,574694
22772,574931
22774,575984
22777,575967
22779,575545
22781,575754
22785,576646
22787,575910
22789,576277
22792,576556
22794,577402
22796,576550
22799,577458
22801,577456
22803,578010
22806,577278
22808,578192
22810,577727
22813,578653
22815,577938
22817,578812
22820,578372
22822,578961
22824,579295
22827,579576
22830,579110
22832,579708
22834,579918
22837,579348
22839,579803
22841,580493
22844,580547
22846,579943
22848,580872
22851,581199
22853,581119
22855,580603
22858,581566
22860,581155
22862,581757
22865,581313
22867,582270
22870,581874
22873,582687
22875,582358
22877,582983
22880,582561
22882,583436
22884,583102
22887,582710
22889,583257
22891,584196
22894,583711
22896,583299
22898,584299
22901,584637
22903,583941
22905,583476
22908,584289
22910,583606
22913,583353
22916,582588
22918,583135
22920,582110
22922,582620
22925,581341
22927,580636
22929,579364
22932,579580
22934,577995
22936,576712
22939,575321
22941,575519
22943,573932
22946,572697
22948,572809
22950,571530
22953,569917
22956,568718
22958,568902
22961,567619
22963,566353
22965,565302
22968,565536
22970,564334
22972,564693
22975,563308
22977,562746
22979,561714
22982,562150
22984,560910
22986,560057
22989,559572
22991,560137
22993,559002
22996,558245
22999,558838
23001,558694
23003,557621
23006,557032
23008,557705
23010,556941
23013,556779
23015,556233
23017,557054
23020,556366
23022,557247
23024,556370
23027,556788
23029,556232
23031,557194
23034,556428
23036,556157
23038,556455
23042,557500
23044,556727
23046,556612
23049,557279
23051,557954
23053,557265
23056,557229
23058,557777
23060,557484
23063,557998
23065,558093
23067,558535
23070,558289
23072,559452
23074,558762
23077,559281
23079,559131
23081,560324
23085,559675
23087,559992
23089,560059
23091,561230
23094,560501
23096,560856
23098,560920
23101,562102
23103,561392
23105,561810
23108,561635
23110,561642
23112,562902
23115,562732
23117,562568
23119,562590
23122,563805
23124,563193
23127,563450
23130,563575
23132,564823
23134,564214
23137,564834
23139,564639
23141,566004
23144,565324
23146,566007
23148,565589
23151,567086
23153,566495
23155,567161
23158,566658
23160,566750
23162,568088
23165,568065
23168,567404
23170,567578
23173,568830
23175,568075
23177,567918
23179,568126
23182,569271
23184,568511
23186,569086
23189,568335
23191,569449
23193,568601
23196,569185
23198,568277
23200,569342
23203,568426
23205,569002
23207,568049
23211,568005
23213,569020
23215,568624
23218,567720
23220,567687
23222,568713
23225,567755
23227,567334
23229,567264
23232,568313
23234,567338
23236,567815
23239,566847
23241,567910
23243,566933
23246,567481
23248,566544
23250,567568
23254,566650
23256,567239
23258,566285
23261,566350
23263,567391
23265,567032
23267,566239
23270,566251
23272,567329
23274,566416
23277,566203
23279,566317
23281,567442
23284,566562
23286,567174
23288,566520
23291,567618
23293,566869
23296,567495
23299,566684
23301,568027
23303,567219
23306,567980
23308,567124
23310,567558
23313,568346
23315,568467
23317,567697
23320,568277
23322,568897
23324,568310
23327,568344
23329,568996
23331,569575
23334,569007
23336,569849
23339,569780
23342,570198
23344,569763
23346,570614
23349,569900
23351,570633
23353,570557
23355,571358
23358,570694
23360,571492
23362,571685
23365,572247
23367,571452
23369,572353
23372,572460
23374,572113
23376,572328
23379,573262
23382,573267
23384,572959
23387,573905
23389,574232
23391,574128
23394,573833
23396,574737
23398,574082
23401,575091
23403,574606
23405,575588
23408,574828
23410,575940
23412,575588
23415,576310
23417,575622
23419,576760
23422,576411
23425,576150
23427,576393
23430,577459
23432,577075
23434,576888
23436,577812
23439,578188
23441,577785
23443,577525
23446,578505
23448,577836
23450,578942
23453,578278
23455,579220
23457,578447
23460,579614
23462,579155
23464,579905
23468,579138
23470,580267
23472,579869
23475,579610
23477,579881
23479,580986
23482,580576
23484,580370
23486,581327
23489,581827
23491,581308
23493,581149
23496,582093
23498,581423
23500,582652
23503,582028
23505,582952
23507,582186
23511,583392
23513,582902
23515,583728
23518,582958
23520,584087
23522,583596
23524,583337
23527,583357
23529,584446
23531,583743
23534,583307
23536,583956
23538,583735
23541,582769
23543,582149
23545,582386
23548,581019
23550,581495
23553,579380
23556,579125
23558,577524
23560,577804
23563,576347
23565,574990
23567,573366
23570,573583
23572,572174
23574,571261
23577,569147
23579,569538
23581,568173
23584,567521
23586,566916
23588,566012
23591,564717
23593,564256
23596,563644
23599,562469
23601,563071
23603,561595
23606,560929
23608,559906
23610,560634
23612,559598
23615,558822
23617,557980
23619,558798
23622,557903
23624,557944
23626,556580
23629,557535
23631,556734
23633,556935
23636,556313
23639,555736
23641,556138
23644,556455
23646,555859
23648,555395
23651,556554
23653,556346
23655,555692
23658,555324
23660,556631
23662,556058
23665,555930
23667,555686
23669,556950
23672,556480
23674,557051
23676,556193
23680,557568
23682,557120
23684,557824
23687,557096
23689,556951
23691,557860
23694,558601
23696,557951
23698,557820
23700,559160
23703,559481
23705,558790
23707,558680
23710,560087
23712,559667
23714,559758
23717,559561
23719,560951
23721,560500
23725,561339
23727,560515
23729,561938
23732,561438
23734,562209
23736,561494
23739,561400
23741,562403
23743,563187
23746,562457
23748,562386
23750,563807
23753,564253
23755,563572
23757,563586
23760,564973
23762,564626
23764,564745
23768,564673
23770,566165
23772,565738
23775,566606
23777,565855
23779,567249
23782,566803
23784,567638
23786,566912
23788,566847
23791,567744
23793,568467
23795,567711
23798,567645
23800,568884
23802,569054
23805,568162
23808,568155
23810,569145
23813,568648
23815,568341
23817,568287
23820,569143
23822,568598
23824,569194
23827,568176
23829,568859
23831,568312
23834,568914
23836,567886
23838,567938
23841,567927
23843,568452
23845,567498
23848,567553
23851,567881
23853,567972
23856,566962
23858,567138
23860,567313
23863,566911
23865,566452
23867,566715
23870,566790
23872,566476
23874,567098
23876,566372
23879,566430
23881,566109
23883,566795
23886,565770
23888,566215
23890,565827
23894,566599
23896,565717
23898,566156
23901,566022
23903,566648
23905,565785
23908,566302
23910,566121
23912,566051
23915,566002
23917,566626
23919,566370
23922,566344
23924,567205
23926,566428
23929,566752
23931,566766
23933,567626
23937,566843
23939,567614
23941,567374
23944,568277
23946,567508
23948,568263
23951,567989
23953,568964
23955,568254
23958,569010
23960,568840
23962,568856
23964,569041
23967,569891
23969,569585
23971,569704
23974,570554
23976,569813
23979,570423
23982,570540
23984,571508
23986,570761
23989,571658
23991,571440
23993,572305
23996,571621
23998,572450
24000,572197
24003,573240
24005,572501
24007,573356
24010,573087
24012,573246
24014,573449
24017,574244
24019,573915
24022,574130
24025,574987
24027,574321
24029,574804
24032,574947
24034,575838
24036,575093
24039,575990
24041,575793
24043,576658
24045,575906
24048,576746
24050,576403
24052,577437
24055,576685
24057,577521
24059,577151
24062,577355
24065,577311
24067,578218
24070,577814
24072,578152
24074,578647
24077,577955
24079,578479
24081,578881
24084,579285
24086,578625
24088,579437
24091,579596
24093,579750
24095,579178
24098,580102
24100,579739
24102,580320
24105,579784
24108,580775
24110,580419
24113,581050
24115,580531
24117,581484
24120,581115
24122,581872
24124,581665
24127,581296
24129,581935
24131,582677
24133,582413
24136,582031
24138,583066
24140,583528
24143,583119
24145,582718
24147,583677
24151,583315
24153,583464
24155,583117
24158,583994
24160,583444
24162,584112
24165,582682
24167,583270
24169,582479
24172,582898
24174,581604
24176,580691
24179,579865
24181,580005
24183,578405
24186,577305
24188,577329
24190,575975
24194,574198
24196,572990
24198,573044
24201,571677
24203,570015
24205,568847
24208,568986
24210,567768
24212,567937
24215,566244
24217,565578
24219,564475
24221,564722
24224,563126
24226,562353
24228,561597
24231,562051
24233,560599
24236,559845
24239,560328
24241,559989
24243,558649
24246,557974
24248,558629
24250,557886
24253,557203
24255,556701
24257,557427
24260,556806
24262,557559
24264,556365
24267,556709
24269,556101
24271,557015
24274,555965
24276,555653
24279,556016
24282,556931
24284,555945
24286,555675
24289,556612
24291,557111
24293,556162
24296,555990
24298,556977
24300,556607
24303,556763
24305,556651
24307,557637
24309,557280
24312,558374
24314,557489
24316,558382
24320,558099
24322,559220
24324,558324
24327,558431
24329,558981
24331,560158
24334,559214
24336,559445
24338,560108
24341,561059
24343,560257
24345,560473
24348,560966
24350,560875
24352,561283
24355,561601
24357,561956
24359,561911
24363,563091
24365,562271
24367,562941
24370,562950
24372,564147
24374,563316
24377,563849
24379,564079
24381,565310
24384,564550
24386,565213
24388,565229
24391,566618
24393,565833
24395,566457
24397,566444
24400,566577
24402,567115
24404,567738
24408,567576
24410,567720
24412,568925
24415,568145
24417,568456
24419,568539
24422,569738
24424,568855
24426,569491
24429,569054
24431,570229
24433,569187
24436,569759
24438,569058
24440,570179
24443,569151
24445,569671
24448,568970
24451,568894
24453,568774
24455,569387
24458,568514
24460,568438
24462,569501
24465,568376
24467,568014
24469,567965
24472,568902
24474,567755
24476,568300
24479,567373
24481,568346
24483,567150
24485,567653
24488,566842
24491,567746
24493,566601
24496,567133
24498,566268
24500,566202
24503,567264
24505,566776
24507,565913
24510,565903
24512,566941
24514,565874
24517,565704
24519,565698
24521,566801
24524,565756
24526,566418
24528,565760
24531,566876
24534,565789
24536,566549
24539,565756
24541,567056
24543,566075
24546,566793
24548,566123
24550,566293
24553,567457
24555,567270
24557,566595
24560,566818
24562,568005
24564,567038
24567,567206
24569,567434
24571,568533
24573,567609
24577,568501
24579,568246
24581,569239
24584,568306
24586,569212
24588,568580
24591,569918
24593,569132
24595,569974
24598,569420
24600,570024
24602,570666
24605,570909
24607,570242
24609,570934
24612,571510
24614,570847
24616,571148
24620,571834
24622,572296
24624,571625
24627,572600
24629,572840
24631,573112
24634,572519
24636,573519
24638,572909
24641,573933
24643,573375
24645,574388
24648,573783
24650,574725
24652,574719
24654,575224
24657,574661
24659,575615
24662,575527
24665,575035
24667,575467
24669,576456
24672,576232
24674,575762
24676,576795
24679,577227
24681,576965
24683,576551
24686,577580
24688,576872
24690,577703
24693,577286
24695,578218
24697,577637
24700,578755
24702,578333
24705,578954
24708,578363
24710,579494
24712,579034
24715,578675
24717,579170
24719,580233
24722,579751
24724,579403
24726,580483
24729,581006
24731,580543
24733,580250
24736,581289
24738,580761
24740,581370
24742,581001
24745,582028
24748,581412
24750,582594
24753,582094
24755,582688
24757,582023
24760,583020
24762,582401
24764,581970
24767,581956
24769,582791
24771,581936
24774,581163
24776,581723
24778,581159
24781,579937
24783,578888
24785,579120
24788,577671
24791,577959
24793,575301
24796,575260
24798,573694
24800,573891
24803,572329
24805,570998
24807,569450
24810,569676
24812,568224
24814,567110
24817,565722
24819,566027
24821,564642
24824,563589
24826,563764
24828,562900
24830,561736
24834,560895
24836,560970
24838,559843
24841,560361
24843,558619
24845,558699
24848,557783
24850,558387
24852,557419
24855,556991
24857,556212
24859,556966
24862,556102
24864,555870
24866,555154
24869,556088
24871,555294
24873,555163
24877,555085
24879,555609
24881,554964
24884,555055
24886,554864
24888,554468
24891,555568
24893,555113
24895,554927
24898,554622
24900,555824
24902,555230
24905,555287
24907,555115
24909,556334
24912,555871
24914,556243
24916,555818
24919,557112
24922,556619
24924,557054
24926,556675
24929,557911
24931,557438
24933,557972
24936,557492
24938,557513
24940,558837
24943,559009
24945,558397
24947,558474
24950,559796
24952,559374
24954,559404
24957,559502
24960,560861
24962,560385
24965,561098
24967,560540
24969,561953
24972,561521
24974,562118
24976,561545
24979,563055
24981,562708
24983,563367
24986,562799
24988,562983
24990,564339
24993,564673
24995,564116
24997,564316
25000,565759
25003,565392
