3127,0
3135,-1
3143,-1
3151,0
3160,-1
3167,-1
3175,0
3183,-1
3191,-1
3200,0
3207,-1
3215,-1
3223,0
3231,0
3239,-1
3247,0
3255,0
3263,-1
3271,0
3279,0
3288,-1
3295,0
3303,0
3311,-1
3319,-1
3328,0
3335,-1
3343,-1
3351,0
3359,-1
3367,-1
3376,0
3383,-1
3391,-1
3399,0
3407,-1
3416,-1
3423,0
3431,0
3439,-1
3447,0
3456,0
3463,-1
3471,0
3479,0
3487,-1
3495,0
3504,0
3511,-1
3519,-1
3527,1
3535,-1
3544,-1
3551,1
3559,-1
3567,-1
3575,1
3584,-1
3592,-2
3599,1
3607,-1
3615,-2
3623,1
3632,0
3639,-3
3647,1
3655,1
3663,-3
3672,1
3679,2
3687,-4
3695,0
3703,3
3712,-5
3720,-1
3727,6
3735,-8
3743,-3
3751,19
3760,-32
3767,-148
3775,-201
3783,-179
3791,-174
3800,-187
3808,-179
3815,-174
3823,-180
3831,-176
3840,-171
3848,-176
3855,-174
3863,-169
3871,-171
3879,-170
3888,-165
3895,-167
3903,-166
3911,-161
3919,-161
3928,-162
3936,-157
3943,-156
3951,-157
3959,-154
3968,-153
3976,-153
3983,-149
3991,-147
3999,-148
4007,-146
4016,-145
4024,-146
4031,-144
4039,-142
4047,-142
4056,-140
4064,-136
4071,-129
4079,-120
4087,-120
4096,-137
4104,-149
4111,-142
4119,-132
4127,-128
4135,-126
4144,-124
4152,-124
4159,-123
4167,-121
4175,-120
4184,-117
4192,-116
4199,-115
4207,-114
4215,-112
4224,-111
4232,-108
4240,-105
4247,-104
4255,-101
4263,-98
4272,-96
4280,-94
4287,-91
4295,-90
4303,-91
4312,-90
4320,-92
4328,-95
4335,-96
4343,-98
4352,-100
4360,-100
4368,-99
4375,-100
4383,-98
4391,-97
4400,-97
4408,-96
4415,-95
4423,-94
4431,-94
4440,-93
4448,-92
4456,-91
4463,-90
4471,-89
4480,-88
4488,-87
4496,-86
4503,-86
4511,-85
4519,-85
4528,-84
4536,-83
4544,-82
4551,-82
4559,-82
4568,-81
4576,-80
4584,-79
4591,-78
4599,-78
4608,-77
4616,-75
4624,-74
4631,-74
4639,-73
4647,-72
4656,-72
4664,-71
4672,-70
4679,-70
4687,-69
4696,-68
4704,-67
4712,-65
4719,-64
4727,-63
4736,-62
4744,-63
4752,-64
4760,-63
4767,-61
4775,-62
4784,-61
4792,-59
4800,-56
4807,-48
4815,-40
4824,-47
4832,-66
4840,-73
4847,-65
4855,-55
4864,-53
4872,-53
4880,-52
4888,-51
4895,-51
4903,-50
4912,-49
4920,-48
4928,-46
4935,-45
4943,-44
4952,-43
4960,-43
4968,-41
4976,-38
4983,-37
4992,-35
5000,-32
5008,-31
5016,-29
5023,-28
5031,-27
5040,-28
5048,-29
5056,-30
5063,-33
5071,-36
5080,-37
5088,-39
5096,-39
5104,-40
5111,-41
5120,-41
5128,-40
5136,-39
5144,-39
5151,-39
5159,-38
5168,-38
5176,-36
5184,-36
5192,-36
5199,-35
5208,-34
5216,-33
5224,-33
5232,-33
5239,-32
5248,-32
5256,-31
5264,-31
5272,-31
5279,-31
5287,-31
5296,-31
5304,-31
5312,-30
5320,-30
5327,-30
5336,-30
5344,-29
5352,-29
5360,-28
5367,-28
5376,-28
5384,-28
5392,-28
5400,-27
5408,-27
5415,-27
5424,-26
5432,-24
5440,-23
5448,-24
5455,-24
5464,-25
5472,-25
5480,-24
5488,-24
5495,-23
5504,-22
5512,-17
5520,-9
5528,-7
5536,-20
5543,-36
5552,-37
5560,-25
5568,-18
5576,-18
5583,-18
5592,-18
5600,-18
5608,-17
5616,-15
5624,-15
5632,-14
5640,-13
5648,-13
5656,-13
5664,-11
5671,-10
5680,-9
5688,-8
5696,-6
5704,-5
5711,-3
5720,-1
5728,0
5736,1
5744,1
5752,0
5760,-1
5768,-3
5776,-5
5784,-8
5792,-10
5799,-11
5808,-13
5816,-14
5824,-14
5832,-14
5840,-14
5848,-14
5856,-14
5864,-14
5872,-13
5880,-12
5888,-12
5896,-12
5904,-11
5912,-11
5920,-10
5927,-10
5936,-10
5944,-9
5952,-9
5960,-9
5968,-10
5976,-9
5984,-9
5992,-9
6000,-9
6008,-9
6016,-9
6024,-9
6032,-8
6040,-8
6048,-8
6056,-8
6064,-7
6072,-7
6080,-7
6088,-7
6096,-7
6104,-6
6112,-4
6120,-4
6128,-5
6136,-6
6144,-6
6152,-5
6160,-5
6168,-5
6176,-4
6184,-3
6192,2
6200,10
6208,11
6216,-4
6224,-18
6232,-18
6240,-8
6248,-2
6256,-2
6264,-1
6273,0
6280,0
6288,0
6296,0
6304,0
6312,0
6320,1
6328,1
6336,1
6344,1
6352,2
6360,3
6368,4
6376,5
6384,7
6392,8
6401,9
6408,9
6416,10
6424,9
6432,8
6440,7
6448,4
6456,0
6464,-3
6472,-5
6480,-6
6489,-7
6496,-7
6504,-7
6512,-8
6520,-7
6529,-6
6536,-6
6544,-7
6552,-7
6560,-6
6568,-5
6576,-5
6584,-5
6592,-5
6600,-4
6608,-5
6617,-4
6624,-3
6632,-3
6640,-4
6648,-3
6657,-3
6664,-3
6672,-3
6680,-2
6688,-2
6696,-2
6705,-2
6712,-2
6720,-2
6728,-1
6736,-1
6745,-2
6752,-2
6760,-1
6768,-1
6776,-1
6785,-1
6792,-1
6800,0
6808,0
6816,0
6824,-1
6833,-2
6840,-2
6848,-1
6856,-1
6864,-2
6873,-2
6880,1
6888,7
6896,15
6904,12
6913,-5
6921,-18
6928,-13
6936,-3
6944,0
6952,0
6961,1
6968,1
6976,0
6984,1
6992,1
7001,2
7008,2
7016,2
7024,1
7032,2
7041,3
7049,4
7056,5
7064,5
7072,6
7080,8
7089,10
7096,10
7104,11
7112,12
7120,12
7129,10
7137,7
7144,4
7152,1
7160,-1
7169,-3
7177,-5
7184,-5
7192,-6
7200,-6
7208,-6
7217,-6
7224,-6
7232,-6
7240,-6
7248,-6
7257,-6
7265,-5
7272,-4
7280,-3
7288,-3
7297,-3
7305,-2
7312,-2
7320,-1
7328,-2
7336,-2
7345,-2
7353,-2
7360,-2
7368,-2
7376,-2
7385,-2
7393,-2
7400,-1
7408,-1
7416,-1
7425,-1
7433,-1
7440,-1
7448,-1
7456,-1
7464,-1
7473,-1
7481,0
7488,1
7496,0
7504,-1
7513,-2
7521,-2
7528,-1
7536,-1
7544,-1
7553,-1
7561,1
7569,7
7576,16
7584,13
7592,-5
7601,-19
7609,-14
7616,-3
7624,1
7632,1
7641,1
7649,1
7656,0
7664,1
7672,1
7681,1
7689,2
7697,2
7704,2
7712,2
7720,3
7729,3
7737,4
7744,6
7752,7
7760,8
7769,10
7777,11
7785,11
7792,11
7800,11
7809,10
7817,8
7825,5
7832,1
7840,-1
7848,-3
7857,-4
7865,-5
7872,-5
7880,-6
7888,-6
7897,-5
7905,-5
7913,-5
7920,-4
7928,-4
7937,-3
7945,-3
7953,-3
7960,-2
7968,-1
7976,-1
7985,-1
7993,-2
8001,-2
8008,-2
8016,-1
8025,-1
8033,-1
8041,-1
8048,-1
8056,-1
8065,-1
8073,-1
8081,-1
8088,-1
8096,-1
8104,-1
8113,-1
8121,0
8129,-1
8136,-1
8144,-1
8153,0
8161,0
8169,0
8176,-1
8184,-2
8193,-2
8201,-1
8209,-2
8217,-1
8224,0
8232,5
8241,12
8249,15
8257,3
8264,-15
8272,-18
8281,-7
8289,0
8297,0
8304,1
8312,1
8321,0
8329,0
8337,1
8345,1
8352,1
8360,2
8369,2
8377,1
8385,2
8392,2
8400,3
8409,5
8417,6
8425,7
8433,7
8440,8
8449,9
8457,10
8465,10
8473,8
8480,7
8488,5
8497,2
8505,-1
8513,-2
8520,-4
8528,-5
8537,-5
8545,-6
8553,-6
8561,-6
8568,-6
8577,-6
8585,-7
8593,-6
8601,-5
8608,-5
8616,-5
8625,-4
8633,-4
8641,-3
8649,-3
8656,-3
8665,-2
8673,-2
8681,-2
8689,-2
8696,-2
8705,-2
8713,-2
8721,-2
8729,-2
8737,-2
8744,-2
8753,-3
8761,-2
8769,-1
8777,-1
8784,-1
8793,0
8801,0
8809,0
8817,-1
8824,-2
8833,-3
8841,-2
8849,-2
8857,-2
8865,-1
8872,0
8881,4
8889,13
8897,14
8905,0
8912,-17
8921,-17
8929,-6
8937,-1
8945,-1
8952,0
8961,0
8969,0
8977,2
8985,5
8993,7
9000,7
9009,7
9017,7
9025,8
9033,8
9040,8
9049,9
9057,11
9065,12
9073,13
9081,14
9089,14
9097,15
9105,16
9113,16
9121,15
9128,13
9137,10
9145,7
9153,4
9161,1
9169,-1
9177,-2
9185,-2
9193,-3
9201,-3
9209,-2
9217,-3
9225,-2
9233,-2
9241,-2
9249,-2
9256,-2
9265,-2
9273,-2
9281,-1
9289,-1
9297,-1
9305,0
9313,0
9321,-1
9329,-1
9337,-2
9345,-2
9353,-2
9361,-2
9369,-2
9377,-2
9385,-2
9393,-2
9401,-2
9409,-1
9417,-2
9425,-1
9433,0
9441,0
9449,-1
9457,-2
9465,-3
9473,-2
9481,-1
9489,-2
9497,-2
9505,0
9513,4
9521,11
9529,16
9537,5
9545,-14
9553,-20
9561,-10
9569,-1
9577,0
9585,0
9593,1
9602,1
9609,1
9617,1
9625,2
9633,2
9641,2
9649,2
9657,2
9665,3
9673,3
9681,4
9689,6
9697,6
9705,7
9713,9
9721,10
9730,11
9737,11
9745,11
9753,9
9761,8
9769,5
9777,2
9785,-1
9793,-3
9801,-5
9809,-5
9818,-6
9825,-7
9833,-7
9841,-6
9849,-6
9858,-6
9865,-6
9873,-6
9881,-6
9889,-6
9897,-5
9905,-5
9913,-4
9921,-4
9929,-4
9937,-3
9946,-3
9953,-3
9961,-3
9969,-3
9977,-3
9986,-3
9993,-3
10001,-2
10009,-1
10017,-1
10025,-2
10034,-1
10041,-1
10049,-1
10057,-1
10065,1
10074,0
10081,0
10089,-1
10097,-2
10105,-3
10114,-2
10121,-2
10129,-1
10137,0
10145,3
10153,10
10162,17
10169,10
10177,-10
10185,-20
10193,-11
10202,-1
10209,1
10217,0
10225,1
10233,1
10242,0
10250,1
10257,1
10265,1
10273,2
10281,2
10290,1
10297,2
10305,2
10313,3
10321,4
10330,5
10337,7
10345,8
10353,9
10361,9
10370,10
10378,10
10385,9
10393,8
10401,6
10409,3
10418,0
10425,-2
10433,-4
10441,-6
10449,-6
10458,-6
10466,-6
10473,-6
10481,-6
10489,-6
10498,-6
10506,-5
10513,-4
10521,-4
10529,-4
10537,-4
10546,-3
10553,-3
10561,-3
10569,-2
10577,-2
10586,-2
10594,-2
10601,-2
10609,-2
10617,-2
10626,-2
10634,-2
10641,-1
10649,-1
10657,-2
10665,-1
10674,0
10682,0
10689,0
10697,-1
10705,-2
10714,-2
10722,-1
10729,-1
10737,-2
10745,-1
10754,3
10762,9
10769,15
10777,7
10785,-12
10793,-20
10802,-10
10810,0
10817,1
10825,1
10833,1
10842,1
10850,0
10857,1
10865,1
10873,1
10882,1
10890,2
10898,1
10905,2
10913,2
10921,3
10930,5
10938,6
10945,7
10953,8
10961,9
10970,9
10978,10
10985,10
10993,9
11001,8
11010,6
11018,3
11026,0
11033,-3
11041,-5
11049,-6
11058,-6
11066,-7
11073,-7
11081,-6
11089,-6
11098,-6
11106,-5
11114,-5
11121,-5
11129,-5
11138,-5
11146,-5
11154,-4
11161,-4
11169,-3
11177,-3
11186,-3
11194,-2
11201,-2
11209,-2
11217,-2
11226,-3
11234,-3
11242,-3
11249,-3
11257,-2
11266,-2
11274,-2
11282,-2
11289,0
11297,1
11305,1
11314,0
11322,-2
11330,-2
11337,-2
11345,-2
11354,-2
11362,0
11370,3
11377,9
11385,16
11394,8
11402,-11
11410,-20
11417,-11
11425,-1
11433,0
11442,0
11450,1
11458,0
11465,0
11473,1
11482,1
11490,1
11498,2
11505,2
11513,2
11522,2
11530,3
11538,3
11546,5
11553,7
11561,7
11570,8
11578,9
11586,10
11593,10
11601,10
11610,9
11618,8
11626,6
11633,2
11641,-1
11650,-3
11658,-5
11666,-6
11674,-6
11681,-6
11689,-6
11698,-6
11706,-5
11714,-5
11721,-5
11729,-4
11738,-5
11746,-4
11754,-4
11762,-4
11769,-4
11778,-3
11786,-2
11794,-2
11802,-2
11809,-2
11817,-3
11826,-3
11834,-3
11842,-3
11849,-3
11857,-3
11866,-2
11874,-1
11882,-1
11890,-1
11897,-1
11906,0
11914,0
11922,0
11930,0
11937,-2
11945,-2
11954,-1
11962,-2
11970,-2
11978,-1
11985,2
11994,8
12002,17
12010,13
12018,-6
12025,-19
12034,-13
12042,-2
12050,1
12058,1
12065,1
12073,1
12082,1
12090,2
12098,2
12106,1
12113,2
12122,2
12130,2
12138,2
12146,3
12153,4
12162,5
12170,6
12178,7
12186,9
12194,10
12201,10
12210,11
12218,11
12226,10
12234,9
12241,6
12250,3
12258,0
12266,-2
12274,-4
12281,-5
12290,-5
12298,-5
12306,-6
12314,-5
12322,-5
12329,-5
12338,-5
12346,-4
12354,-4
12362,-5
12369,-4
12378,-2
12386,0
12394,1
12402,0
12410,0
12418,0
12426,0
12434,0
12442,-1
12450,-1
12457,-1
12466,-2
12474,-2
12482,-2
12490,-2
12497,-1
12506,-2
12514,-1
12522,0
12530,0
12538,0
12546,-1
12554,-2
12562,-3
12570,-2
12578,-1
12585,-2
12594,-1
12602,1
12610,7
12618,16
12626,13
12634,-5
12642,-20
12650,-14
12658,-2
12666,2
12674,1
12682,1
12690,1
12698,1
12706,2
12713,2
12722,1
12730,2
12738,2
12746,2
12754,3
12762,4
12770,4
12778,5
12786,7
12794,8
12802,9
12810,10
12818,10
12826,10
12834,11
12843,10
12850,9
12858,7
12866,4
12874,1
12882,-2
12890,-3
12898,-4
12906,-5
12914,-5
12922,-5
12930,-5
12938,-5
12946,-5
12954,-5
12962,-5
12971,-4
12978,-4
12986,-4
12994,-3
13002,-3
13010,-2
13018,-2
13026,-2
13034,-2
13042,-2
13050,-2
13059,-2
13066,-2
13074,-2
13082,-2
13090,-1
13099,-1
13106,-1
13114,-1
13122,0
13130,1
13138,0
13147,-1
13154,-2
13162,-3
13170,-2
13178,-2
13187,-2
13194,-1
13202,2
13210,7
13218,13
13227,7
13234,-11
13242,-21
13250,-12
13258,-1
13266,1
13275,0
13282,1
13290,1
13298,0
13306,1
13315,1
13322,1
13330,2
13338,1
13346,1
13355,2
13363,2
13370,3
13378,5
13386,5
13394,6
13403,7
13410,8
13418,9
13426,9
13434,9
13443,8
13450,7
13458,5
13466,1
13474,-2
13483,-4
13491,-6
13498,-7
13506,-7
13514,-7
13522,-7
13531,-7
13538,-6
13546,-6
13554,-6
13562,-6
13571,-6
13579,-6
13586,-6
13594,-5
13602,-4
13611,-4
13619,-4
13626,-3
13634,-2
13642,-3
13650,-3
13659,-2
13666,-3
13674,-4
13682,-3
13690,-3
13699,-3
13707,-2
13714,-2
13722,-2
13730,-2
13739,0
13747,1
13754,1
13762,-1
13770,-2
13778,-2
13787,-1
13795,-2
13802,-2
13810,0
13818,3
13827,11
13835,16
13842,7
13850,-12
13858,-19
13867,-10
13875,0
13882,1
13890,0
13898,1
13906,0
13915,0
13923,1
13930,1
13938,1
13946,2
13955,3
13963,2
13970,2
13978,3
13986,4
13995,6
14003,7
14011,7
14018,9
14026,10
14034,10
14043,11
14051,11
14058,10
14066,7
14074,4
14083,1
14091,-1
14098,-3
14106,-5
14114,-6
14123,-6
14131,-6
14139,-6
14146,-6
14154,-6
14162,-6
14171,-5
14179,-5
14186,-6
14194,-5
14202,-4
14211,-4
14219,-3
14227,-3
14234,-3
14242,-3
14251,-2
14259,-2
14267,-2
14274,-2
14282,-3
14290,-2
14299,-2
14307,-2
14314,-2
14322,-1
14330,-1
14339,-1
14347,-1
14355,0
14362,0
14370,0
14379,-1
14387,-3
14395,-3
14402,-1
14410,-1
14418,-1
14427,0
14435,4
14443,12
14450,16
14458,5
14467,-15
14475,-19
14483,-8
14490,0
14498,0
14507,0
14515,1
14523,0
14530,0
14538,1
14546,1
14555,1
14563,2
14571,2
14578,2
14586,2
14595,3
14603,4
14611,5
14618,7
14626,8
14635,9
14643,10
14651,10
14659,11
14666,11
14674,9
14683,7
14691,5
14699,2
14706,-2
14714,-4
14723,-5
14731,-6
14739,-6
14746,-6
14754,-6
14763,-6
14771,-5
14779,-5
14787,-5
14794,-5
14802,-5
14811,-5
14819,-4
14827,-4
14834,-3
14842,-3
14851,-3
14859,-3
14867,-3
14875,-2
14882,-2
14891,-2
14899,-2
14907,-2
14915,-2
14922,-2
14930,-2
14939,-1
14947,-1
14955,-2
14962,-2
14970,-1
14979,0
14987,-1
14995,-1
15003,-1
15010,-1
15019,-1
15027,-2
15035,-2
15043,0
15050,4
15058,11
15067,17
15075,8
15083,-11
15091,-20
15098,-10
15107,0
15115,2
15123,1
15131,1
15138,1
15147,1
15155,2
15163,2
15171,2
15178,3
15186,3
15195,3
15203,3
15211,4
15219,5
15226,6
15235,7
15243,7
15251,9
15259,10
15266,11
15275,10
15283,10
15291,10
15299,8
15307,6
15314,4
15323,1
15331,-2
15339,-4
15347,-5
15354,-6
15363,-6
15371,-6
15379,-6
15387,-6
15394,-6
15403,-5
15411,-5
15419,-5
15427,-4
15435,-4
15442,-4
15451,-3
15459,-2
15467,-2
15475,-2
15482,-1
15491,-2
15499,-2
15507,-2
15515,-2
15523,-2
15531,-2
15539,-1
15547,-1
15555,-2
15563,-1
15570,0
15579,0
15587,0
15595,-2
15603,-3
15610,-2
15619,-2
15627,-2
15635,-2
15643,0
15651,4
15659,11
15667,13
15675,1
15683,-16
15691,-18
15698,-6
15707,1
15715,1
15723,0
15731,1
15739,0
15747,1
15755,2
15763,1
15771,2
15779,3
15787,2
15795,2
15803,3
15811,3
15819,4
15826,5
15835,6
15843,7
15851,8
15859,9
15867,9
15875,10
15883,10
15891,8
15899,6
15907,3
15915,0
15923,-2
15931,-4
15939,-5
15947,-6
15955,-6
15963,-6
15971,-6
15979,-5
15987,-5
15995,-6
16003,-5
16011,-5
16019,-5
16027,-5
16035,-4
16043,-4
16051,-3
16059,-2
16067,-3
16075,-2
16083,-2
16091,-2
16099,-2
16107,-2
16115,-2
16123,-2
16131,-2
16139,-3
16147,-3
16155,-2
16163,-2
16172,-2
16179,-1
16187,0
16195,0
16203,-1
16211,-2
16219,-3
16227,-2
16235,-2
16243,-2
16251,-2
16259,0
16267,4
16275,13
16283,15
16291,1
16300,-17
16307,-18
16315,-7
16323,-1
16331,0
16339,0
16347,1
16355,0
16363,1
16371,2
16379,1
16388,1
16395,2
16403,2
16411,2
16419,3
16428,4
16435,4
16443,6
16451,7
16459,8
16467,9
16475,10
16483,10
16491,11
16499,10
16507,9
16516,7
16523,4
16531,0
16539,-3
16547,-4
16556,-5
16563,-6
16571,-7
16579,-7
16587,-6
16595,-6
16604,-6
16611,-6
16619,-6
16627,-6
16635,-5
16644,-5
16651,-5
16659,-4
16667,-2
16675,-2
16684,-2
16691,-2
16699,-2
16707,-3
16715,-2
16723,-2
16732,-3
16739,-3
16747,-3
16755,-4
16763,-2
16772,-1
16779,-2
16787,-2
16795,-1
16803,0
16812,-1
16820,-1
16827,-2
16835,-2
16843,-1
16851,-2
16860,-2
16867,-1
16875,2
16883,9
16891,17
16900,11
16907,-9
16915,-20
16923,-11
16931,0
16940,2
16948,1
16955,2
16963,2
16971,1
16979,2
16988,2
16995,2
17003,2
17011,2
17019,2
17028,2
17036,2
17043,4
17051,6
17059,8
17068,10
17076,11
17083,13
17091,13
17099,14
17107,13
17116,11
17124,10
17131,8
17139,4
17147,1
17156,-1
17164,-3
17171,-4
17179,-4
17187,-5
17196,-5
17204,-4
17211,-4
17219,-5
17227,-5
17235,-5
17244,-4
17252,-4
17259,-4
17267,-4
17275,-3
17284,-2
17292,-2
17299,-2
17307,-2
17315,-2
17324,-2
17332,-2
17339,-2
17347,-2
17355,-2
17363,-2
17372,-3
17380,-1
17387,-1
17395,-1
17403,-1
17412,1
17420,1
17427,0
17435,0
17443,-2
17452,-2
17460,-2
17468,-1
17475,-1
17483,0
17491,2
17500,10
17508,19
17515,16
17523,-1
17531,-13
17540,-6
17548,6
17555,9
17563,8
17571,8
17580,8
17588,8
17596,9
17603,9
17611,9
17619,9
17628,9
17636,9
17643,10
17651,10
17659,11
17668,13
17676,13
17684,13
17691,14
17699,15
17708,15
17716,16
17724,17
17731,16
17739,14
17747,12
17756,9
17764,6
17771,4
17779,1
17787,-1
17796,-1
17804,-1
17812,-2
17819,-2
17827,-1
17836,-2
17844,-2
17852,-2
17859,-2
17867,-2
17875,-1
17884,0
17892,0
17900,0
17907,0
17915,-1
17924,-1
17932,-1
17940,-1
17947,-1
17955,-2
17964,-2
17972,-2
17980,-1
17988,-1
17995,-1
18003,0
18012,0
18020,0
18028,-1
18035,-2
18043,-2
18052,-2
18060,-1
18068,-1
18075,1
18083,4
18092,10
18100,14
18108,5
18116,-13
18123,-19
18131,-8
18140,1
18148,3
18156,2
18163,2
18171,1
18180,1
18188,2
18196,1
18204,1
18211,2
18220,2
18228,2
18236,2
18244,3
18251,3
18259,4
18268,6
18276,6
18284,7
18291,8
18299,8
18308,9
18316,9
18324,8
18332,6
18339,3
18348,-1
18356,-3
18364,-4
18372,-5
18379,-6
18387,-6
18396,-7
18404,-7
18412,-6
18420,-5
18427,-5
18436,-5
18444,-5
18452,-6
18460,-5
18467,-4
18476,-4
18484,-4
18492,-3
18500,-2
18507,-2
18515,-2
18524,-2
18532,-2
18540,-2
18548,-2
18555,-2
18564,-2
18572,-3
18580,-2
18588,-2
18595,-2
18604,-2
18612,0
18620,0
18628,0
18636,-1
18643,-2
18652,-2
18660,-1
18668,-1
18676,-2
18683,-1
18692,1
18700,8
18708,15
18716,12
18723,-7
18732,-19
18740,-12
18748,-1
18756,2
18764,2
18771,2
18780,2
18788,1
18796,3
18804,3
18811,3
18820,3
18828,3
18836,3
18844,3
18852,4
18860,4
18868,6
18876,7
18884,8
18892,9
18899,10
18908,11
18916,11
18924,11
18932,10
18939,8
18948,7
18956,4
18964,0
18972,-3
18980,-4
18988,-6
18996,-6
19004,-6
19012,-6
19020,-6
19027,-5
19036,-5
19044,-5
19052,-5
19060,-5
19068,-4
19076,-3
19084,-3
19092,-3
19100,-2
19108,-2
19116,-2
19124,-1
19132,-1
19140,-2
19148,-2
19155,-2
19164,-2
19172,-2
19180,-2
19188,-2
19196,-2
19204,-2
19212,-1
19220,0
19228,1
19236,2
19244,2
19252,1
19260,0
19268,-1
19276,-1
19284,-1
19292,-2
19300,-2
19308,-1
19316,3
19324,13
19332,17
19340,4
19348,-15
19356,-19
19364,-8
19372,-1
19380,0
19388,0
19396,0
19404,0
19412,1
19420,1
19428,1
19436,1
19444,2
19452,1
19460,2
19468,3
19476,4
19484,4
19492,6
19501,7
19508,8
19516,9
19524,10
19532,11
19540,11
19548,11
19556,10
19564,8
19572,4
19580,1
19588,-1
19596,-2
19604,-3
19612,-5
19620,-6
19629,-5
19636,-5
19644,-5
19652,-5
19660,-5
19668,-4
19676,-4
19684,-4
19692,-3
19700,-3
19708,-2
19717,-2
19724,-2
19732,-1
19740,-1
19748,0
19757,0
19764,-1
19772,-1
19780,-1
19788,-1
19796,-1
19804,-2
19812,-2
19820,-1
19828,-1
19836,-1
19845,-1
19852,0
19860,1
19868,1
19876,-1
19885,-2
19892,-2
19900,-2
19908,-2
19916,-2
19924,-1
19933,2
19940,7
19948,15
19956,13
19964,-5
19973,-19
19980,-15
19988,-2
19996,2
20004,1
20013,1
20020,1
20028,0
20036,0
20044,1
20052,1
20061,1
20068,2
20076,2
20084,2
20092,3
20101,4
20108,5
20116,6
20124,7
20132,8
20141,9
20149,10
20156,10
20164,10
20172,10
20180,8
20189,6
20196,3
20204,1
20212,-1
20220,-3
20229,-4
20236,-4
20244,-4
20252,-4
20260,-4
20269,-4
20277,-4
20284,-3
20292,-3
20300,-3
20308,-3
20317,-2
20324,-2
20332,-1
20340,-1
20348,-1
20357,-2
20365,-1
20372,-1
20380,-2
20388,-3
20397,-2
20405,-2
20412,-2
20420,-2
20428,-2
20436,-2
20445,-1
20452,0
20460,0
20468,0
20476,-2
20485,-2
20493,-2
20500,-2
20508,-2
20516,-1
20525,0
20533,3
20540,10
20548,13
20556,0
20564,-17
20573,-19
20581,-7
20588,1
20596,1
20604,0
20613,1
20621,1
20628,1
20636,1
20644,0
20653,1
20661,1
20668,1
20676,1
20684,2
20692,2
20701,3
20709,5
20716,6
20724,6
20732,8
20741,9
20749,9
20756,10
20764,10
20772,9
20781,6
20789,3
20797,0
20804,-3
20812,-4
20820,-5
20829,-6
20837,-7
20844,-7
20852,-6
20860,-6
20869,-6
20877,-6
20884,-5
20892,-5
20900,-5
20909,-5
20917,-5
20925,-4
20932,-3
20940,-3
20948,-3
20957,-3
20965,-2
20972,-2
20980,-3
20988,-3
20997,-3
21005,-3
21013,-3
21020,-3
21028,-2
21037,-2
21045,-2
21053,-2
21060,-1
21068,0
21076,0
21085,-1
21093,-2
21100,-3
21108,-2
21116,-2
21125,-2
21133,-2
21141,0
21148,4
21156,12
21165,15
21173,1
21181,-17
21188,-18
21196,-6
21204,0
21213,-1
21221,-1
21229,0
21236,0
21244,0
21253,1
21261,1
21269,1
21276,2
21284,1
21293,1
21301,2
21309,2
21316,3
21324,4
21332,6
21341,7
21349,8
21357,10
21364,10
21372,10
21381,10
21389,8
21397,6
21404,3
21412,1
21421,-2
21429,-5
21437,-6
21445,-6
21452,-6
21460,-6
21469,-6
21477,-6
21485,-6
21492,-5
21500,-5
21509,-5
21517,-5
21525,-4
21532,-5
21540,-4
21549,-3
21557,-3
21565,-3
21573,-2
21580,-2
21588,-3
21597,-3
21605,-3
21613,-3
21620,-2
21628,-2
21637,-2
21645,-1
21653,-1
21661,-1
21668,0
21677,1
21685,0
21693,-1
21701,-2
21708,-2
21716,-1
21725,-1
21733,-2
21741,-2
21748,0
21756,5
21765,14
21773,16
21781,1
21789,-17
21796,-17
21805,-5
21813,1
21821,1
21829,1
21836,1
21844,1
21853,1
21861,1
21869,1
21877,2
21884,2
21893,2
21901,2
21909,3
21917,4
21924,4
21933,6
21941,7
21949,8
21957,9
21964,10
21972,11
21981,11
21989,10
21997,9
22005,7
22012,5
22021,1
22029,-2
22037,-3
22045,-5
22052,-6
22061,-6
22069,-6
22077,-6
22085,-5
22093,-4
22100,-5
22109,-5
22117,-4
22125,-4
22133,-4
22140,-4
22149,-3
22157,-2
22165,-2
22173,-2
22180,-3
22189,-2
22197,-2
22205,-2
22213,-2
22221,-3
22228,-2
22237,-2
22245,-2
22253,-2
22261,-1
22268,0
22277,1
22285,0
22293,-1
22301,-2
22309,-2
22317,-1
22325,-1
22333,-1
22341,0
22349,2
22356,6
22365,14
22373,12
22381,-5
22389,-19
22396,-15
22405,-3
22413,2
22421,1
22429,2
22437,2
22445,1
22453,1
22461,2
22469,2
22477,2
22484,2
22493,2
22501,2
22509,3
22517,4
22525,5
22533,6
22541,7
22549,8
22557,9
22565,10
22573,11
22581,11
22589,11
22597,10
22605,7
22614,4
22621,1
22629,-1
22637,-3
22645,-4
22653,-5
22661,-5
22669,-5
22677,-5
22685,-5
22693,-5
22701,-5
22709,-5
22717,-5
22725,-4
22733,-4
22742,-4
22749,-3
22757,-3
22765,-3
22773,-2
22781,-2
22789,-3
22797,-2
22805,-2
22813,-2
22821,-2
22830,-1
22837,-2
22845,-1
22853,0
22861,0
22870,-1
22877,-1
22885,-2
22893,-2
22901,-2
22909,-2
22917,-2
22925,-1
22933,2
22941,8
22949,13
22958,5
22965,-13
22973,-21
22981,-12
22989,-2
22998,0
23005,0
23013,1
23021,0
23029,0
23037,1
23046,1
23053,1
23061,1
23069,1
23077,1
23086,2
23093,3
23101,3
23109,4
23117,6
23126,7
23133,8
23141,8
23149,9
23157,10
23165,10
23174,9
23181,7
23189,4
23197,1
23205,-3
23214,-4
23221,-5
23229,-6
23237,-6
23245,-6
23254,-6
23262,-6
23269,-6
23277,-5
23285,-5
23293,-5
23302,-5
23309,-4
23317,-3
23325,-3
23333,-3
23342,-2
23349,-2
23357,-2
23365,-2
23373,-2
23382,-2
23390,-2
23397,-2
23405,-2
23413,-2
23421,-2
23430,-2
23437,-1
23445,-1
23453,-1
23461,0
23470,-1
23478,-2
23485,-2
23493,-1
23501,-2
23510,-2
23518,-1
23525,1
23533,7
23541,15
23549,11
23558,-8
23565,-20
23573,-14
23581,-2
23589,1
23598,0
23606,1
23613,1
23621,0
23629,1
23638,1
23646,1
23653,1
23661,2
23669,2
23677,2
23686,3
23694,3
23701,4
23709,6
23717,8
23726,8
23734,9
23741,10
23749,10
23757,10
23766,10
23774,8
23781,5
23789,1
23797,-2
23805,-4
23814,-5
23822,-5
23829,-6
23837,-6
23845,-6
23854,-6
23862,-5
23869,-5
23877,-5
23885,-5
23894,-5
23902,-5
23910,-5
23917,-3
23925,-3
23933,-3
23942,-2
23950,-2
23957,-2
23965,-3
23973,-2
23982,-2
23990,-2
23997,-2
24005,-3
24013,-2
24022,-1
24030,-2
24038,-1
24045,0
24053,0
24061,0
24070,-1
24078,-2
24085,-2
24093,-1
24101,-1
24110,-2
24118,-1
24126,2
24133,8
24141,16
24150,10
24158,-10
24166,-21
24173,-11
24181,0
24189,1
24198,1
24206,2
24213,1
24221,0
24229,2
24238,2
24246,2
24254,3
24261,3
24269,2
24278,3
24286,4
24294,4
24301,6
24309,7
24317,8
24326,9
24334,10
24342,11
24349,11
24357,11
24366,10
24374,8
24382,6
24389,3
24397,0
24406,-2
24414,-4
24422,-5
24429,-6
24437,-6
24445,-5
24454,-5
24462,-5
24470,-5
24477,-5
24485,-4
24494,-3
24502,-3
24510,-4
24517,-3
24525,-2
24534,-2
24542,-2
24550,-2
24558,-2
24565,-1
24573,-1
24582,-2
24590,-2
24598,-2
24605,-2
24613,-3
24622,-1
24630,-1
24638,-1
24645,-1
24653,1
24662,1
24670,0
24678,-1
24686,-2
24693,-2
24701,-2
24710,-2
24718,-1
24726,1
24733,5
24741,12
24750,13
24758,-2
24766,-18
24774,-17
24781,-4
24790,1
24798,0
24806,0
24814,1
24821,0
24829,1
24838,2
24846,2
24854,2
24861,3
24869,3
24878,3
24886,3
24894,3
24902,4
24909,6
24918,7
24926,7
24934,8
24942,9
24949,9
24957,10
24966,9
24974,8
24982,6
24990,4
24997,1
25006,-2
25014,-4
25022,-6
25030,-6
25037,-7
25046,-7
25054,-6
25062,-5
25070,-5
25077,-5
25085,-4
25094,-5
25102,-5
25110,-4
25118,-4
25125,-4
25134,-3
25142,-3
25150,-2
25158,-2
25165,-2
25174,-2
25182,-2
25190,-2
25198,-2
25206,-2
25213,-2
25222,-2
25230,-2
25238,-1
25246,-1
25253,-1
25262,0
25270,0
25278,0
25286,-1
25293,-2
25302,-2
25310,-2
25318,-1
25326,-1
25334,0
25341,1
25350,7
25358,15
25366,13
25374,-4
25381,-19
25390,-15
25398,-3
25406,2
25414,1
25422,1
25430,1
25438,0
25446,1
25454,1
25462,1
25469,0
25478,1
25486,1
25494,1
25502,2
25509,4
25518,6
25526,8
25534,9
25542,11
25550,11
25558,11
25566,12
25574,13
25582,12
25590,10
25597,8
25606,5
25614,0
25622,-1
25630,-3
25638,-4
25646,-5
25654,-5
25662,-6
25670,-6
25678,-5
25686,-6
25694,-6
25702,-5
25710,-5
25718,-5
25725,-4
25734,-4
25742,-3
25750,-2
25758,-1
25766,-2
25774,-2
25782,-1
25790,-1
25798,-1
25806,-1
25814,-2
25822,-2
25830,-2
25838,-2
25846,-3
25854,-3
25862,-2
25870,-2
25878,0
25886,2
25894,2
25902,1
25910,0
25918,-1
25926,-1
25934,0
25942,-1
25950,-1
25958,1
25966,4
25974,12
25982,18
25990,9
25998,-11
26006,-18
26014,-9
26022,-1
26030,-1
26038,-1
26046,0
26054,0
26062,1
26071,2
26078,3
26086,3
26094,2
26102,2
26110,2
26118,3
26126,3
26134,4
26142,5
26150,7
26158,8
26166,9
26174,11
26182,11
26190,11
26199,11
26206,10
26214,8
26222,6
26230,3
26238,0
26246,-3
26254,-4
26262,-5
26270,-6
26278,-6
26287,-7
26294,-6
26302,-6
26310,-6
26318,-6
26327,-6
26334,-5
26342,-5
26350,-5
26358,-4
26366,-4
26374,-3
26382,-3
26390,-3
26398,-2
26406,-2
26415,-2
26422,-2
26430,-1
26438,-1
26446,-2
26455,-1
26462,-1
26470,-2
26478,-1
26486,1
26494,0
26503,-1
26510,-1
26518,-1
26526,-1
26534,-1
26543,0
26550,0
26558,0
26566,3
26574,10
26583,10
26590,-4
26598,-19
26606,-18
26614,-6
26622,1
26631,1
26638,1
26646,1
26654,1
26662,0
26671,0
26678,0
26686,0
26694,0
26702,1
26711,2
26719,3
26726,4
26734,5
26742,6
26750,7
26759,8
26766,8
26774,9
26782,10
26790,10
26799,10
26806,9
26814,7
26822,4
26830,1
26839,-2
26847,-4
26854,-5
26862,-5
26870,-6
26878,-6
26887,-6
26894,-5
26902,-5
26910,-5
26918,-5
26927,-4
26935,-4
26942,-4
26950,-3
26958,-2
26967,-1
26975,-1
26982,-1
26990,-2
26998,-3
27006,-4
27015,-3
27022,-2
27030,-1
27038,-1
27046,-1
27055,0
27063,1
27070,0
27078,-1
27086,-2
27095,-3
27103,-2
27110,-1
27118,-1
27126,-1
27134,1
27143,4
27151,10
27158,9
27166,-5
27174,-18
27183,-14
27191,-4
27198,1
27206,0
27214,-1
27223,-1
27231,-1
27238,0
27246,0
27254,1
27262,2
27271,3
27279,3
27286,4
27294,5
27302,6
27311,6
27319,6
27326,7
27334,8
27342,9
27351,10
27359,9
27367,8
27374,7
27382,7
27390,5
27399,1
27407,-1
27414,-3
27422,-4
27430,-6
27439,-7
27447,-7
27455,-6
27462,-5
27470,-4
27479,-4
27487,-3
27495,-3
27502,-5
27510,-4
27518,-4
27527,-3
27535,-3
27542,-2
27550,-2
27558,-2
27567,-2
27575,-2
27583,-2
27590,-1
27598,-2
27607,-3
27615,-2
27623,-3
27630,-3
27638,-3
27646,-1
27655,-1
27663,0
27671,0
27678,-1
27686,0
27695,1
27703,-1
27711,-2
27718,-2
27726,0
27735,6
27743,12
27751,6
27758,-12
27766,-20
27774,-12
27783,-3
27791,-1
27799,-1
27806,0
27814,0
27823,0
27831,0
27839,0
27846,2
27854,2
27863,2
27871,3
27879,4
27887,4
27894,4
27902,5
27911,7
27919,9
27927,10
27934,11
27942,13
27951,14
27959,14
27967,12
27974,10
27982,7
27991,2
27999,-3
28007,-6
28015,-8
28022,-9
28030,-9
28039,-9
28047,-8
28055,-8
28062,-8
28070,-6
28079,-5
28087,-4
28095,-4
28103,-4
28110,-3
28119,-3
28127,-3
28135,-4
28143,-4
28150,-3
28158,-3
28167,-3
28175,-3
28183,-2
28190,-1
28198,-2
28207,-2
28215,-2
28223,-3
28231,-3
28238,-2
28247,0
28255,0
28263,0
28271,-1
28278,-1
28286,-1
28295,-1
28303,-2
28311,-1
28319,0
28326,4
28335,13
28343,17
28351,4
28359,-15
28366,-17
28375,-6
28383,1
28391,1
28399,1
28406,1
28414,1
28423,1
28431,1
28439,1
28447,1
28454,2
28463,1
28471,1
28479,1
28487,3
28494,4
28503,6
28511,7
28519,8
28527,10
28535,11
28542,11
28551,11
28559,11
28567,10
28575,7
28582,4
28591,1
28599,-2
28607,-3
28615,-4
28622,-6
28631,-6
28639,-6
28647,-7
28655,-7
28663,-5
28670,-6
28679,-8
28687,-7
28695,-5
28703,-5
28710,-5
28719,-4
28727,-3
28735,-2
28743,-2
28751,-1
28759,-1
28767,-1
28775,0
28783,-1
28791,-1
28798,-1
28807,-2
28815,-3
28823,-4
28831,-3
28838,-2
28847,0
28855,0
28863,-1
28871,-1
28879,-2
28887,-1
28895,0
28903,-1
28911,-1
28919,0
28926,4
28935,12
28943,16
28951,3
28959,-17
28967,-20
28975,-8
28983,0
28991,0
28999,0
29007,0
29015,0
29023,0
29031,1
29039,1
29047,2
29054,3
29063,2
29071,2
29079,2
29087,3
29095,3
29103,3
29111,5
29119,6
29127,8
29135,8
29143,8
29151,9
29159,9
29167,8
29175,6
29184,4
29191,0
29199,-4
29207,-6
29215,-7
29223,-8
29231,-8
29239,-8
29247,-8
29255,-7
29263,-7
29271,-7
29279,-6
29287,-5
29295,-6
29303,-6
29312,-5
29319,-5
29327,-5
29335,-4
29343,-4
29351,-3
29359,-3
29367,-2
29375,-2
29383,-3
29391,-3
29400,-3
29407,-2
29415,-2
29423,-2
29431,-1
29440,0
29447,0
29455,0
29463,-1
29471,-2
29479,-1
29487,-1
29495,-2
29503,-1
29511,0
29519,3
29528,11
29535,14
29543,1
29551,-16
29559,-19
29568,-7
29575,1
29583,1
29591,1
29599,1
29607,1
29616,0
29623,1
29631,2
29639,2
29647,3
29656,3
29663,2
29671,3
29679,3
29687,4
29696,6
29703,7
29711,9
29719,9
29727,10
29735,10
29744,10
29751,11
29759,9
29767,7
29775,5
29784,1
29791,-2
29799,-4
29807,-5
29815,-6
29824,-7
29832,-7
29839,-8
29847,-8
29855,-7
29863,-7
29872,-7
29879,-7
29887,-7
29895,-6
29903,-5
29912,-5
29919,-5
29927,-4
29935,-4
29943,-4
29952,-4
29960,-4
29967,-4
29975,-3
29983,-4
29991,-4
30000,-4
30007,-3
30015,-4
30023,-4
30031,-2
30040,-1
30048,-1
30055,-1
30063,-2
30071,-3
30080,-2
30088,-2
30095,-2
30103,-2
30111,1
30119,5
30128,13
30135,14
30143,-1
30151,-18
30159,-17
30168,-6
30176,0
30183,-1
30191,0
30199,0
30208,-1
30216,0
30223,1
30231,0
30239,1
30247,1
30256,1
30264,1
30271,1
30279,1
30287,2
30296,4
30304,5
30311,6
30319,8
30327,8
30336,9
30344,9
30351,9
30359,7
30367,5
30375,2
30384,-2
30392,-4
30399,-5
30407,-7
30415,-8
30424,-8
30432,-8
30439,-8
30447,-8
30455,-8
30464,-8
30472,-7
30480,-7
30487,-7
30495,-6
30503,-6
30512,-6
30520,-5
30527,-5
30535,-4
30543,-4
30552,-4
30560,-5
30567,-5
30575,-4
30583,-4
30592,-4
30600,-4
30608,-4
30615,-4
30623,-4
30631,-3
30640,-3
30648,-1
30655,-1
30663,-1
30671,-1
30680,-2
30688,-3
30696,-2
30703,-2
30711,-2
30720,-2
30728,1
30736,6
30743,14
30751,15
30759,-1
30768,-18
30776,-17
30783,-5
30791,0
30799,-1
30808,0
30816,1
30824,0
30831,0
30839,1
30848,0
30856,1
30864,1
30871,1
30879,2
30887,2
30896,3
30904,4
30912,6
30919,8
30927,9
30936,10
30944,10
30952,10
30959,11
30967,10
30976,9
30984,6
30992,3
30999,0
31007,-3
31015,-5
31024,-6
31032,-6
31040,-6
31047,-7
31055,-7
31064,-7
31072,-6
31080,-6
31087,-6
31095,-5
31104,-6
31112,-6
31120,-5
31128,-5
31135,-4
31143,-4
31152,-4
31160,-3
31168,-3
31175,-2
31183,-3
31192,-2
31200,-2
31208,-3
31215,-3
31223,-3
31232,-2
31240,-2
31248,-2
31256,-1
31263,0
31271,1
31280,1
31288,0
31296,-1
31303,-2
31311,-2
31320,-2
31328,-2
31336,-1
31344,0
31351,3
31360,11
31368,18
31376,9
31384,-11
31391,-19
31399,-9
31408,0
31416,1
31424,1
31431,1
31439,1
31448,1
31456,1
31464,1
31472,1
31479,2
31488,2
31496,2
31504,3
31512,3
31519,5
31527,6
31536,7
31544,8
31552,10
31560,11
31567,11
31576,11
31584,10
31592,9
31600,8
31607,5
31616,2
31624,-1
31632,-2
31640,-4
31647,-6
31655,-6
31664,-7
31672,-7
31680,-6
31688,-6
31695,-6
31704,-6
31712,-5
31720,-5
31728,-5
31735,-4
31744,-4
31752,-4
31760,-3
31768,-3
31776,-2
31783,-2
31792,-2
31800,-1
31808,-2
31816,-2
31823,-2
31832,-2
31840,-1
31848,-1
31856,-1
31863,-2
31872,-1
31880,0
31888,-1
31896,0
31904,1
31911,1
31920,0
31928,-2
31936,-2
31944,-2
31951,-1
31960,-1
31968,-1
31976,1
31984,7
31992,16
32000,16
32008,-2
32016,-18
32024,-16
32032,-4
32039,1
32048,0
32056,1
32064,1
32072,0
32079,1
32088,1
32096,1
32104,2
32112,2
32120,2
32128,2
32136,3
32144,3
32152,4
32160,6
32167,7
32176,9
32184,10
32192,10
32200,10
32208,10
32216,10
32224,8
32232,6
32240,3
32248,0
32256,-3
32264,-5
32272,-6
32280,-6
32288,-6
32295,-6
32304,-7
32312,-7
32320,-6
32328,-6
32336,-6
32344,-6
32352,-5
32360,-5
32368,-5
32376,-4
32384,-3
32392,-3
32400,-3
32408,-3
32416,-3
32424,-3
32432,-3
32440,-3
32448,-3
32456,-2
32464,-3
32472,-3
32480,-2
32488,-2
32496,-1
32504,-1
32512,-1
32520,0
32528,1
32536,1
32544,0
32552,-1
32560,-2
32568,-2
32576,-1
32584,-1
32592,-1
32600,0
32608,3
32616,10
32624,18
32632,9
32641,-12
32648,-20
32656,-9
32664,0
32672,1
32680,1
32688,1
32696,1
32704,0
32712,1
32720,2
32728,2
32736,3
32744,3
32752,3
32760,4
32769,4
32776,5
32784,7
32792,7
32800,9
32808,10
32816,11
32824,11
32832,11
32840,11
32848,10
32857,9
32864,7
32872,3
32880,0
32888,-2
32897,-5
32904,-5
32912,-5
32920,-5
32928,-6
32936,-6
32944,-5
32952,-5
32960,-5
32968,-5
32976,-4
32985,-4
32992,-4
33000,-3
33008,-3
33016,-3
33025,-2
33032,-2
33040,-2
33048,-2
33056,-2
33064,-1
33073,-1
33080,-1
33088,-2
33096,-1
33104,0
33113,-1
33120,-1
33128,-1
33136,0
33144,0
33153,0
33160,1
33168,0
33176,-1
33184,-2
33192,-2
33201,-1
33208,-2
33216,-1
33224,0
33232,3
33241,10
33248,17
33256,11
33264,-10
33272,-20
33281,-11
33289,0
33296,1
33304,1
33312,1
33320,1
33329,1
33336,2
33344,2
33352,2
33360,3
33369,2
33376,2
33384,4
33392,4
33400,5
33409,6
33417,8
33424,9
33432,10
33440,10
33448,11
33457,11
33464,11
33472,10
33480,9
33488,7
33497,4
33505,2
33512,-1
33520,-3
33528,-5
33537,-5
33545,-5
33552,-5
33560,-5
33568,-5
33576,-5
33585,-5
33592,-5
33600,-4
33608,-3
33616,-3
33625,-3
33633,-3
33640,-2
33648,-2
33656,-1
33665,-2
33673,-2
33680,-1
33688,-1
33696,-1
33704,-1
33713,-1
33721,-1
33728,-1
33736,-1
33744,-1
33753,0
33761,1
33768,1
33776,0
33784,-1
33793,-2
33801,-2
33808,-2
33816,-2
33824,-1
33832,0
33841,4
33849,13
33856,16
33864,3
33872,-17
33881,-19
33889,-6
33896,1
33904,0
33912,0
33921,1
33929,0
33937,0
33944,1
33952,1
33960,1
33969,1
33977,1
33984,2
33992,2
34000,3
34009,3
34017,5
34024,7
34032,8
34040,9
34049,10
34057,10
34065,10
34072,9
34080,8
34088,7
34097,4
34105,0
34112,-3
34120,-5
34128,-6
34137,-6
34145,-7
34153,-6
34160,-7
34168,-7
34177,-7
34185,-6
34193,-6
34200,-6
34208,-6
34216,-5
34225,-4
34233,-4
34241,-3
34248,-3
34256,-3
34265,-2
34273,-2
34281,-2
34288,-3
34296,-3
34305,-2
34313,-2
34321,-2
34328,-2
34336,-2
34344,-2
34353,-1
34361,-1
34369,0
34376,0
34384,1
34393,0
34401,-1
34409,-2
34416,-2
34424,-2
34433,-2
34441,-2
34449,0
34456,3
34464,10
34472,18
34481,11
34489,-10
34497,-20
34504,-11
34512,0
34521,1
34529,0
34537,1
34544,1
34552,1
34561,2
34569,2
34577,2
34585,2
34592,2
34600,2
34609,3
34617,4
34625,4
34632,5
34640,7
34649,8
34657,10
34665,11
34672,11
34680,11
34689,11
34697,10
34705,9
34713,6
34720,3
34728,0
34737,-3
34745,-4
34753,-5
34760,-5
34768,-6
34777,-6
34785,-5
34793,-6
34801,-6
34808,-5
34817,-5
34825,-5
34833,-5
34841,-4
34848,-4
34856,-3
34865,-2
34873,-2
34881,-1
34889,-1
34896,-2
34905,-2
34913,-2
34921,-2
34929,-1
34936,-1
34945,-2
34953,-1
34961,-1
34969,0
34976,0
34984,1
34993,2
35001,2
35009,1
35017,-1
35024,-2
35033,-2
35041,-2
35049,-1
35057,-1
35064,2
35073,9
35081,18
35089,13
35097,-8
35104,-19
35112,-11
35121,0
35129,2
35137,1
35145,1
35152,1
35161,0
35169,1
35177,2
35185,2
35192,2
35201,3
35209,3
35217,3
35225,4
35233,4
35240,5
35249,7
35257,8
35265,10
35273,10
35280,11
35289,10
35297,10
35305,10
35313,8
35321,6
35329,3
35337,0
35345,-2
35353,-4
35361,-6
35368,-6
35377,-6
35385,-6
35393,-7
35401,-7
35408,-6
35417,-6
35425,-6
35433,-6
35441,-5
35449,-4
35457,-4
35465,-3
35473,-3
35481,-2
35489,-2
35496,-3
35505,-2
35513,-2
35521,-3
35529,-2
35537,-2
35545,-2
35553,-2
35561,-1
35569,-1
35577,0
35585,0
35593,1
35601,1
35609,0
35617,-2
35624,-2
35633,-1
35641,-2
35649,-2
35657,0
35665,1
35673,6
35681,15
35689,15
35697,-3
35705,-19
35713,-15
35721,-2
35729,1
35737,0
35745,1
35753,1
35761,0
35769,1
35777,1
35785,2
35793,2
35801,3
35809,3
35817,3
35825,4
35833,4
35841,5
35849,7
35857,8
35865,10
35873,11
35881,11
35889,12
35897,12
35905,11
35913,10
35921,8
35929,5
35937,1
35945,-1
35953,-3
35961,-4
35970,-5
35977,-5
35985,-5
35993,-5
36001,-5
36009,-5
36017,-5
36025,-4
36033,-4
36041,-4
36049,-3
36057,-3
36065,-2
36073,-2
36081,-1
36089,-1
36098,-1
36105,-1
36113,-2
36121,-1
36129,-1
36137,-2
36145,-2
36153,-1
36161,-1
36169,-1
36177,0
36185,1
36193,1
36201,0
36209,-1
36217,-2
36226,-2
36233,-1
36241,-1
36249,-1
36257,1
36265,6
36273,15
36281,14
36289,-4
36297,-20
36305,-15
36314,-2
36321,2
36329,0
36337,1
36345,2
36354,1
36361,1
36369,2
36377,2
36385,3
36393,3
36402,3
36409,3
36417,4
36425,5
36433,6
36442,7
36449,9
36457,10
36465,11
36473,11
36482,12
36489,12
36497,11
36505,10
36513,8
36521,4
36530,1
36537,-2
36545,-3
36553,-4
36561,-5
36570,-6
36577,-6
36585,-5
36593,-5
36601,-5
36610,-5
36618,-5
36625,-5
36633,-4
36641,-4
36649,-3
36658,-2
36665,-2
36673,-2
36681,-1
36689,-1
36698,-1
36705,-1
36713,-1
36721,-2
36729,-1
36738,0
36746,-1
36753,0
36761,1
36769,1
36777,0
36786,0
36793,-2
36801,-2
36809,-1
36817,-1
36826,-2
36834,-1
36841,2
36849,8
36857,16
36866,12
36874,-8
36881,-21
36889,-13
36897,-1
36905,2
36914,1
36921,2
36929,1
36937,1
36945,2
36954,2
36962,2
36969,2
36977,2
36985,2
36994,4
37002,4
37009,4
37017,5
37025,7
37033,9
37042,10
37050,11
37057,11
37065,12
37073,12
37082,11
37090,10
37097,7
37105,4
37113,1
37122,-2
37130,-4
37137,-5
37145,-5
37153,-6
37161,-6
37170,-6
37178,-6
37185,-6
37193,-5
37201,-5
37210,-5
37218,-4
37225,-3
37233,-3
37241,-3
37250,-2
37258,-2
37266,-2
37273,-1
37281,-1
37289,-1
37298,-2
37306,-2
37313,-1
37321,-1
37329,-1
37338,-1
37346,0
37353,1
37361,1
37369,0
37378,-2
37386,-2
37394,-1
37401,-1
37409,-2
37417,0
37426,2
37434,8
37441,15
37449,10
37457,-10
37466,-22
37474,-13
37482,-1
37489,1
37497,0
37506,1
37514,1
37522,1
37529,1
37537,1
37545,1
37554,2
37562,2
37569,2
37577,3
37585,3
37594,4
37602,5
37610,7
37617,8
37625,10
37634,11
37642,11
37650,11
37657,11
37665,10
37673,8
37682,5
37690,2
37698,-2
37705,-4
37713,-5
37722,-6
37730,-6
37738,-7
37745,-7
37753,-6
37762,-6
37770,-6
37778,-5
37785,-5
37793,-5
37801,-5
37810,-4
37818,-4
37826,-4
37833,-3
37841,-2
37850,-2
37858,-2
37866,-2
37873,-2
37881,-2
37890,-2
37898,-2
37906,-2
37914,-1
37921,-1
37929,0
37938,1
37946,1
37954,0
37961,-1
37969,-2
37978,-2
37986,-2
37994,-2
38001,-1
38009,1
38018,5
38026,14
38034,15
38042,-1
38049,-20
38057,-18
38066,-5
38074,1
38082,-1
38089,0
38097,1
38106,0
38114,0
38122,1
38130,0
38137,1
38146,1
38154,1
38162,1
38170,3
38177,3
38185,4
38194,6
38202,7
38210,9
38217,10
38225,11
38234,10
38242,10
38250,10
38258,8
38265,6
38274,3
38282,0
38290,-3
38298,-5
38305,-6
38313,-6
38322,-6
38330,-7
38338,-7
38346,-6
38353,-7
38362,-7
38370,-6
38378,-6
38386,-6
38393,-5
38402,-5
38410,-5
38418,-3
38426,-3
38433,-3
38441,-2
38450,-2
38458,-3
38466,-3
38474,-3
38481,-3
38490,-2
38498,-1
38506,-2
38514,-1
38521,0
38530,1
38538,1
38546,1
38554,-1
38562,-2
38569,-2
38578,-2
38586,-2
38594,0
38602,2
38609,8
38618,17
38626,13
38634,-6
38642,-20
38649,-13
38658,-1
38666,2
38674,1
38682,2
38690,2
38697,1
38706,2
38714,2
38722,2
38730,3
38737,3
38746,3
38754,4
38762,4
38770,5
38778,7
38786,8
38794,9
38802,11
38810,12
38818,12
38825,12
38834,12
38842,11
38850,10
38858,8
38865,4
38874,1
38882,-2
38890,-3
38898,-4
38906,-5
38914,-5
38922,-5
38930,-4
38938,-4
38946,-5
38953,-5
38962,-5
38970,-4
38978,-3
38986,-3
38994,-3
39002,-2
39010,-1
39018,-1
39026,-1
39034,-1
39042,-1
39050,-1
39058,-2
39066,-1
39074,-1
39081,-2
39090,-1
39098,0
39106,-1
39114,-1
39122,0
39130,1
39138,1
39146,0
39154,-2
39162,-2
39170,-2
39178,-2
39186,-2
39194,-1
39202,1
39211,6
39218,15
39226,17
39234,0
39242,-19
39250,-16
39258,-3
39266,2
39274,0
39282,1
39290,1
39298,0
39306,1
39314,2
39322,2
39330,2
39339,3
39346,3
39354,3
39362,4
39370,5
39378,6
39386,7
39394,9
39402,10
39410,11
39418,12
39427,12
39434,12
39442,12
39450,10
39458,8
39467,5
39474,2
39482,-1
39490,-3
39498,-5
39506,-5
39514,-5
39522,-6
39530,-6
39538,-5
39546,-6
39555,-5
39562,-5
39570,-4
39578,-4
39586,-4
39595,-3
39602,-2
39610,-1
39618,-1
39626,-1
39634,-1
39643,-1
39650,-2
39658,-1
39666,-1
39674,-1
39683,-1
39690,-1
39698,-2
39706,-1
39714,0
39723,0
39730,0
39738,0
39746,1
39754,1
39762,0
39771,-2
39778,-2
39786,-1
39794,-1
39802,-2
39811,-1
39818,1
39826,6
39834,16
39842,18
39851,0
39859,-18
39866,-16
39874,-3
39882,2
39890,1
39899,1
39906,1
39914,1
39922,1
39930,2
39939,1
39946,2
39954,3
39962,2
39970,2
39979,4
39987,4
39994,5
40002,7
40010,8
40018,10
40027,10
40034,11
40042,11
40050,11
40058,11
40067,10
40075,8
40082,4
40090,0
40098,-2
40107,-4
40115,-5
40122,-6
40130,-7
40138,-6
40146,-6
40155,-5
40162,-5
40170,-5
40178,-4
40186,-4
40195,-4
40203,-4
40210,-3
40218,-2
40226,-2
40235,-2
40243,-2
40250,-1
40258,-1
40266,-2
40274,-1
40283,-1
40291,-2
40298,-1
40306,-1
40314,-1
40323,-1
40331,0
40338,-1
40346,-1
40354,0
40363,0
40371,0
40378,0
40386,-1
40394,-2
40402,-2
40411,-2
40419,-1
40426,-1
40434,0
40442,4
40451,13
40459,18
40466,5
40474,-16
40482,-20
40491,-7
40499,1
40507,1
40514,1
40522,1
40530,0
40539,1
40547,1
40554,1
40562,1
40570,2
40579,2
40587,2
40594,3
40602,3
40610,4
40619,6
40627,7
40635,8
40642,10
40650,11
40658,11
40667,11
40675,12
40682,10
40690,8
40698,6
40707,2
40715,-1
40723,-4
40730,-5
40738,-5
40747,-6
40755,-6
40763,-5
40770,-6
40778,-6
40786,-6
40795,-5
40803,-5
40810,-5
40818,-5
40826,-4
40835,-4
40843,-3
40851,-3
40858,-3
40866,-3
40875,-3
40883,-2
40891,-2
40898,-3
40906,-2
40914,-2
40923,-2
40931,-2
40939,-2
40946,-2
40954,-1
40963,0
40971,-1
40979,-1
40986,0
40994,1
41003,0
41011,-1
41019,-2
41026,-3
41034,-2
41042,-1
41051,-1
41059,-1
41067,1
41074,6
41082,16
41091,19
41099,2
41107,-17
41114,-16
41122,-4
41131,1
41139,0
41147,1
41155,1
41162,0
41170,1
41179,1
41187,1
41195,1
41202,2
41210,2
41219,2
41227,3
41235,4
41242,5
41250,6
41259,8
41267,9
41275,11
41283,11
41290,11
41298,11
41307,11
41315,10
41323,8
41330,4
41338,1
41347,-2
41355,-4
41363,-5
41371,-6
41378,-6
41387,-6
41395,-6
41403,-6
41411,-6
41418,-6
41426,-6
41435,-6
41443,-5
41451,-4
41459,-4
41466,-3
41475,-2
41483,-2
41491,-2
41499,-1
41506,-2
41515,-2
41523,-2
41531,-2
41539,-2
41546,-2
41554,-2
41563,-1
41571,-1
41579,-1
41587,-1
41594,0
41603,0
41611,-1
41619,0
41627,0
41634,-1
41643,-1
41651,-2
41659,-3
41667,-3
41674,-2
41682,-2
41691,-1
41699,1
41707,6
41715,16
41722,18
41731,1
41739,-19
41747,-18
41755,-5
41762,1
41771,1
41779,1
41787,1
41795,0
41803,1
41810,1
41819,2
41827,2
41835,3
41843,3
41850,3
41859,4
41867,4
41875,5
41883,7
41890,8
41899,10
41907,11
41915,11
41923,12
41931,12
41938,12
41947,11
41955,9
41963,6
41971,3
41978,0
41987,-2
41995,-4
42003,-5
42011,-6
42019,-6
42027,-6
42035,-5
42043,-5
42051,-5
42059,-5
42066,-5
42075,-4
42083,-3
42091,-3
42099,-2
42106,-2
42115,-1
42123,-1
42131,-1
42139,-1
42147,-2
42155,-2
42163,-1
42171,-1
42179,-1
42187,-1
42194,-1
42203,-1
42211,-1
42219,0
42227,-1
42235,-1
42243,0
42251,1
42259,0
42267,-2
42275,-3
42283,-2
42291,-2
42299,-1
42307,-1
42315,0
42322,2
42331,9
42339,16
42347,11
42355,-8
42363,-19
42371,-12
42379,-1
42387,3
42395,2
42403,2
42411,2
42419,2
42427,2
42435,3
42443,3
42451,3
42459,4
42467,4
42475,4
42483,4
42491,5
42499,6
42507,8
42515,9
42523,11
42531,11
42539,12
42547,12
42555,12
42563,12
42571,11
42579,9
42587,5
42595,2
42603,0
42611,-2
42619,-3
42627,-4
42635,-4
42643,-5
42651,-5
42659,-4
42668,-4
42675,-4
42683,-3
42691,-3
42699,-2
42707,-2
42715,-1
42723,-1
42731,-1
42739,-1
42747,-1
42756,-1
42763,-1
42771,-1
42779,-1
42787,-1
42796,-1
42803,-1
42811,-1
42819,-1
42827,-1
42835,1
42843,1
42851,0
42859,0
42867,-1
42875,-2
42884,-1
42891,-1
42899,-1
42907,-1
42915,1
42924,4
42931,11
42939,13
42947,-1
42955,-18
42963,-17
42972,-5
42979,1
42987,0
42995,0
43003,0
43012,0
43019,1
43027,1
43035,0
43043,1
43052,1
43059,1
43067,1
43075,2
43083,2
43091,3
43100,5
43107,6
43115,7
43123,8
43131,9
43140,10
43147,10
43155,9
43163,9
43171,6
43180,3
43188,-1
43195,-3
43203,-5
43211,-6
43219,-6
43228,-7
43235,-7
43243,-7
43251,-7
43259,-7
43268,-6
43275,-6
43283,-6
43291,-6
43299,-5
43308,-5
43316,-5
43323,-4
43331,-4
43339,-4
43347,-3
43356,-3
43363,-3
43371,-3
43379,-3
43387,-3
43396,-3
43404,-3
43411,-3
43419,-2
43427,-2
43436,-2
43444,-1
43451,0
43459,0
43467,0
43475,-2
43484,-2
43491,-2
43499,-1
43507,-2
43515,-2
43524,0
43532,3
43539,10
43547,17
43555,8
43564,-12
43572,-18
43579,-8
43587,0
43595,1
43603,0
43612,1
43620,0
43627,1
43635,1
43643,1
43652,1
43660,2
43667,2
43675,1
43683,2
43692,3
43700,5
43707,6
43715,6
43723,8
43731,9
43740,11
43748,11
43755,11
43763,11
43771,10
43780,8
43788,6
43795,2
43803,-1
43811,-3
43820,-4
43828,-5
43836,-6
43843,-6
43851,-6
43859,-5
43868,-5
43876,-5
43883,-5
43891,-5
43899,-5
43908,-4
43916,-4
43923,-4
43931,-4
43939,-2
43948,-2
43956,-2
43964,-1
43971,-1
43979,-1
43987,-1
43996,-1
44004,-1
44011,-1
44019,-1
44027,-1
44036,-1
44044,-1
44052,-1
44059,-1
44067,0
44076,1
44084,1
44092,0
44099,-1
44107,-3
44115,-3
44124,-2
44132,-2
44139,-2
44147,-1
44155,4
44164,13
44172,17
44180,3
44187,-16
44195,-18
44204,-6
44212,1
44220,0
44227,0
44235,1
44243,0
44252,0
44260,1
44268,1
44275,1
44283,1
44292,1
44300,1
44308,2
44315,3
44323,5
44332,7
44340,7
44348,9
44355,10
44363,11
44371,11
44380,12
44388,12
44396,10
44403,8
44411,5
44420,1
44428,-2
44436,-4
44443,-5
44451,-6
44460,-6
44468,-6
44476,-6
44484,-6
44491,-6
44499,-6
44508,-5
44516,-5
44524,-4
44531,-4
44539,-4
44548,-3
44556,-3
44564,-2
44571,-1
44579,-1
44588,-1
44596,-2
44604,-1
44612,-1
44619,-2
44627,-1
44636,-1
44644,-1
44652,-1
44659,-1
44667,-1
44676,-1
44684,-1
44692,-1
44700,0
44707,1
44716,1
44724,0
44732,-1
44740,-2
44747,-2
44755,-2
44764,-1
44772,-1
44780,0
44787,3
44795,12
44804,19
44812,7
44820,-14
44828,-18
44835,-7
44844,0
44852,0
44860,1
44868,2
44875,1
44883,0
44892,1
44900,1
44908,2
44916,2
44923,2
44932,2
44940,3
44948,3
44956,4
44963,5
44972,6
44980,8
44988,10
44996,10
45003,10
45011,11
45020,11
45028,10
45036,8
45044,6
45051,2
45060,-1
45068,-3
45076,-5
45084,-5
45091,-5
45100,-6
45108,-6
45116,-6
45124,-5
45132,-5
45139,-5
45148,-5
45156,-5
45164,-5
45172,-4
45179,-4
45188,-3
45196,-3
45204,-2
45212,-2
45219,-2
45228,-2
45236,-2
45244,-2
45252,-1
45260,-1
45267,-1
45276,-1
45284,-1
45292,-2
45300,-1
45307,0
45316,0
45324,0
45332,1
45340,1
45348,0
45356,-1
45364,-2
45372,-2
45380,-2
45388,-1
45395,-1
45404,0
45412,3
45420,11
45428,17
45435,9
45444,-12
45452,-21
45460,-10
45468,0
45476,1
45484,1
45492,2
45500,1
45508,1
45516,2
45523,1
45532,1
45540,3
45548,3
45556,2
45564,3
45572,4
45580,5
45588,6
45596,7
45604,8
45612,10
45620,11
45628,11
45636,11
45644,12
45651,11
45660,9
45668,7
45676,4
45684,0
45692,-2
45700,-4
45708,-5
45716,-6
45724,-5
45732,-5
45740,-5
45748,-5
45756,-5
45764,-4
45772,-4
45780,-4
45788,-4
45796,-3
45804,-3
45812,-3
45820,-3
45828,-2
45836,-2
45844,-1
45852,-2
45860,-2
45868,-1
45876,-1
45884,-1
45892,-1
45900,-1
45908,-2
45916,-2
45924,-1
45932,-1
45940,-1
45948,1
45956,1
45964,1
45972,0
45980,-2
45988,-2
45997,-2
46004,-1
46012,-2
46020,0
46028,2
46036,8
46044,16
46052,13
46060,-6
46068,-19
46076,-13
46084,-2
46092,0
46100,0
46108,1
46116,1
46125,1
46132,1
46140,1
46148,2
46156,2
46164,3
46172,2
46180,2
46188,3
46196,4
46204,6
46213,7
46220,8
46228,10
46236,10
46244,11
46253,11
46261,12
46268,11
46276,9
46284,7
46292,4
46300,0
46308,-2
46316,-4
46324,-5
46332,-5
46341,-6
46348,-6
46356,-6
46364,-5
46372,-6
46381,-6
46388,-5
46396,-6
46404,-6
46412,-5
46420,-5
46429,-4
46436,-4
46444,-3
46452,-2
46460,-2
46469,-2
46476,-3
46484,-3
46492,-2
46500,-3
46509,-3
46516,-2
46524,-2
46532,-2
46540,-2
46548,-1
46557,-1
46564,-1
46572,0
46580,1
46588,0
46597,-1
46604,-2
46612,-2
46620,-2
46628,-1
46637,-1
46645,0
46652,2
46660,9
46668,18
46676,12
46685,-8
46692,-19
46700,-12
46708,-2
46716,0
46725,0
46732,1
46740,1
46748,1
46756,1
46765,2
46773,2
46780,2
46788,2
46796,2
46804,3
46813,4
46820,5
46828,6
46836,7
46844,8
46853,10
46861,11
46868,12
46876,11
46884,11
46893,11
46901,9
46908,7
46916,3
46924,0
46932,-2
46941,-4
46948,-5
46956,-6
46964,-6
46972,-6
46981,-6
46989,-6
46996,-6
47004,-6
47012,-6
47021,-5
47029,-5
47036,-5
47044,-4
47052,-3
47060,-3
47069,-2
47077,-2
47084,-2
47092,-2
47100,-3
47109,-2
47117,-2
47124,-3
47132,-2
47140,-2
47149,-1
47157,-1
47164,-1
47172,0
47180,0
47188,0
47197,0
47205,0
47212,0
47220,-1
47228,-2
47237,-3
47245,-2
47252,-2
47260,-2
47268,-1
47277,2
47285,10
47293,18
47300,12
47308,-8
47316,-20
47325,-12
47333,-1
47340,1
47348,1
47356,2
47365,1
47373,0
47380,1
47388,2
47396,2
47405,3
47413,3
47421,3
47428,3
47436,4
47444,5
47453,6
47461,7
47468,9
47476,9
47484,10
47493,12
47501,12
47509,12
47516,11
47524,10
47533,8
47541,4
47549,1
47556,-1
47564,-3
47572,-4
47581,-5
47589,-5
47596,-5
47604,-6
47612,-6
47621,-6
47629,-5
47637,-5
47644,-5
47652,-4
47661,-4
47669,-3
47677,-3
47684,-3
47692,-2
47700,-2
47709,-1
47717,-1
47725,-2
47732,-2
47740,-2
47749,-1
47757,-2
47765,-2
47772,-1
47780,-1
47789,0
47797,0
47805,-1
47812,-1
47820,1
47828,1
47837,0
47845,-1
47853,-2
47860,-3
47868,-2
47877,-1
47885,-1
47893,0
47900,3
47908,10
47917,18
47925,11
47933,-10
47941,-20
47948,-11
47956,0
47965,1
47973,0
47981,2
47988,1
47996,0
48005,1
48013,2
48021,2
48028,3
48036,3
48045,3
48053,3
48061,4
48069,5
48076,6
48084,7
48093,9
48101,11
48109,11
48116,12
48124,12
48133,12
48141,11
48149,10
48157,8
48164,4
48173,1
48181,-2
48189,-3
48197,-4
48204,-5
48212,-6
48221,-7
48229,-7
48237,-6
48244,-6
48252,-6
48261,-5
48269,-5
48277,-4
48285,-4
48292,-3
48301,-3
48309,-2
48317,-2
48325,-2
48332,-2
48340,-3
48349,-3
48357,-2
48365,-2
48373,-2
48380,-2
48389,-1
48397,-1
48405,-1
48413,-1
48420,-1
48429,-1
48437,0
48445,1
48453,0
48460,-1
48468,-2
48477,-2
48485,-2
48493,-2
48501,-2
48508,0
48517,2
48525,7
48533,17
48541,16
48548,-3
48557,-19
48565,-15
48573,-2
48581,2
48589,1
48596,2
48605,2
48613,1
48621,1
48629,2
48636,2
48645,3
48653,3
48661,2
48669,3
48676,4
48685,5
48693,6
48701,7
48709,8
48717,10
48724,11
48733,12
48741,12
48749,12
48757,12
48764,11
48773,9
48781,6
48789,2
48797,-1
48805,-3
48813,-4
48821,-4
48829,-5
48837,-5
48845,-5
48852,-5
48861,-5
48869,-5
48877,-4
48885,-4
48892,-3
48901,-3
48909,-3
48917,-2
48925,-1
48933,-1
48941,-2
48949,-2
48957,-1
48965,-1
48973,-1
48980,-2
48989,-2
48997,-1
49005,-1
49013,-1
49021,-1
49029,0
49037,-1
49045,-1
49053,0
49061,1
49069,0
49077,-1
49085,-2
49093,-2
49101,-1
49108,-1
49117,-1
49125,0
49133,2
49141,7
49149,16
49157,16
49165,-2
49173,-19
49181,-15
49189,-3
49197,1
49205,0
49213,1
49221,2
49229,1
49238,1
49245,2
49253,2
49261,2
49269,2
49277,3
49285,3
49293,4
49301,5
49309,6
49317,7
49325,8
49333,10
49341,11
49349,11
49357,12
49366,12
49373,12
49381,10
49389,8
49397,5
49405,2
49413,-1
49421,-3
49429,-4
49437,-5
49445,-5
49454,-5
49461,-5
49469,-6
49477,-5
49485,-5
49494,-5
49501,-5
49509,-4
49517,-4
49525,-4
49533,-3
49541,-2
49549,-2
49557,-2
49565,-2
49573,-3
49582,-2
49589,-2
49597,-2
49605,-2
49613,-1
49622,-2
49629,-2
49637,-1
49645,0
49653,0
49661,1
49670,1
49677,0
49685,-1
49693,-2
49701,-2
49710,-2
49717,-2
49725,-2
49733,-1
49741,1
49750,8
49757,17
49765,15
49773,-5
49781,-19
49789,-14
49798,-2
49805,2
49813,1
49821,2
49829,2
49838,1
49845,2
49853,2
49861,2
49869,3
49878,3
49886,3
49893,3
49901,4
49909,5
49917,6
49926,7
49933,9
49941,10
49949,10
49957,11
49966,12
49973,13
49981,12
49989,10
49997,8
50006,4
50014,2
50021,0
50029,-4
50037,-6
50045,-7
50054,-6
50061,-6
50069,-6
50077,-6
50085,-6
50094,-5
50102,-4
50109,-5
50117,-5
50125,-4
50134,-3
50142,-3
50149,-3
50157,-3
50165,-3
50173,-3
50182,-3
50189,-3
50197,-3
50205,-3
50213,-3
50222,-2
50230,-1
50237,-1
50245,-2
50253,0
50262,1
50270,0
50277,-1
50285,-2
50293,-3
50301,-3
50310,-1
50318,-1
50325,-1
50333,1
50341,5
50350,13
50358,16
50365,2
50373,-17
50381,-19
50390,-7
50398,1
50405,1
50413,1
50421,1
50429,0
50438,1
50446,2
50453,1
50461,2
50469,2
50478,2
50486,2
50493,3
50501,3
50509,4
50518,6
50526,7
50534,8
50541,10
50549,11
50557,11
50566,11
50574,12
50581,11
50589,8
50597,5
50606,1
50614,-2
50621,-4
50629,-6
50637,-6
50646,-7
50654,-7
50662,-6
50669,-6
50677,-5
50685,-6
50694,-6
50702,-5
50709,-5
50717,-5
50725,-5
50734,-4
50742,-4
50750,-4
50757,-3
50765,-3
50774,-3
50782,-2
50790,-2
50797,-2
50805,-2
50813,-3
50822,-3
50830,-3
50837,-2
50845,-2
50853,0
50862,1
50870,0
50878,0
50885,-1
50893,-2
50902,-2
50910,-2
50918,-2
50925,-1
50933,1
50941,6
50950,15
50958,15
50966,-3
50973,-19
50981,-15
50990,-2
50998,2
51006,1
51013,1
51021,1
51030,1
51038,2
51046,2
51053,2
51061,2
51069,3
51078,3
51086,3
51094,4
51101,5
51109,6
51118,8
51126,9
51134,10
51141,12
51149,12
51158,12
51166,12
51174,12
51182,11
51189,8
51197,5
51206,1
51214,-2
51222,-3
51229,-4
51237,-5
51246,-6
51254,-6
51262,-5
51270,-5
51277,-5
51286,-5
51294,-5
51302,-5
51310,-4
51317,-4
51325,-4
51334,-4
51342,-3
51350,-3
51357,-2
51365,-2
51374,-2
51382,-2
51390,-1
51398,-1
51405,-1
51414,-2
51422,-2
51430,-1
51438,-1
51445,-2
51453,0
51462,1
51470,0
51478,-1
51486,-2
51493,-2
51502,-2
51510,-2
51518,-2
51526,0
51533,2
51542,8
51550,16
51558,13
51566,-5
51573,-20
51581,-14
51590,-2
51598,2
51606,1
51614,0
51621,0
51630,0
51638,1
51646,2
51654,2
51661,2
51670,2
51678,2
51686,3
51694,3
51701,4
51709,6
51718,7
51726,8
51734,10
51742,11
51749,11
51758,12
51766,12
51774,11
51782,10
51789,7
51798,3
51806,0
51814,-2
51822,-4
51830,-5
51837,-5
51846,-6
51854,-7
51862,-6
51870,-6
51877,-6
51886,-6
51894,-6
51902,-5
51910,-5
51918,-4
51926,-4
51934,-3
51942,-2
51950,-2
51958,-1
51965,-1
51974,-2
51982,-2
51990,-2
51998,-1
52005,-1
52014,-2
52022,-2
52030,-2
52038,-1
52046,-1
52054,0
52062,1
52070,1
52078,0
52086,-1
52093,-1
52102,-1
52110,-1
52118,-2
52126,-1
52134,0
52142,5
52150,15
52158,16
52166,-1
52174,-19
52182,-17
52190,-4
52198,1
52206,0
52214,0
52221,1
52230,0
52238,0
52246,1
52254,1
52262,2
52270,2
52278,2
52286,3
52294,3
52302,4
52310,5
52318,7
52326,8
52334,9
52342,11
52350,11
52358,11
52366,12
52374,11
52382,10
52390,8
52398,5
52406,1
52414,-2
52422,-4
52430,-5
52438,-5
52446,-5
52454,-6
52462,-6
52470,-6
52478,-6
52486,-5
52494,-5
52502,-5
52510,-5
52518,-5
52526,-4
52534,-4
52542,-3
52550,-2
52558,-2
52567,-2
52574,-2
52582,-2
52590,-3
52598,-3
52606,-3
52614,-3
52622,-3
52630,-3
52638,-3
52646,-1
52654,0
52662,1
52670,0
52678,0
52686,-2
52695,-3
52702,-3
52710,-3
52718,-3
52726,-2
52734,0
52742,5
52750,14
52758,16
52766,0
52774,-18
52783,-19
52790,-6
52798,0
52806,-1
52814,-1
52823,0
52830,0
52838,1
52846,1
52854,1
52862,1
52870,1
52878,1
52886,2
52894,3
52902,3
52911,4
52918,6
52926,7
52934,9
52942,10
52951,11
52958,11
52966,11
52974,10
52982,9
52990,8
52999,5
53006,0
53014,-3
53022,-4
53030,-5
53039,-6
53046,-6
53054,-7
53062,-7
53070,-7
53079,-6
53086,-6
53094,-6
53102,-5
53110,-5
53118,-4
53127,-4
53134,-4
53142,-3
53150,-3
53158,-3
53167,-3
53174,-3
53182,-3
53190,-3
53198,-3
53207,-3
53215,-3
53222,-2
53230,-2
53238,-2
53246,-1
53255,0
53262,0
53270,0
53278,0
53286,0
53295,-1
53302,-2
53310,-3
53318,-2
53326,-1
53335,-2
53343,-2
53350,0
53358,3
53366,11
53374,19
53383,11
53390,-10
53398,-19
53406,-10
53414,0
53423,1
53431,1
53438,2
53446,1
53454,1
53463,1
53471,1
53478,2
53486,2
53494,2
53502,2
53511,4
53518,4
53526,5
53534,5
53542,7
53551,9
53559,11
53566,11
53574,12
53582,13
53591,13
53599,11
53606,10
53614,7
53622,3
53630,0
53639,-3
53647,-4
53654,-6
53662,-6
53670,-7
53679,-7
53687,-7
53694,-7
53702,-6
53710,-5
53719,-6
53727,-6
53734,-5
53742,-4
53750,-4
53758,-4
53767,-3
53775,-3
53782,-2
53790,-3
53798,-3
53807,-2
53815,-3
53822,-3
53830,-2
53838,-3
53847,-2
53855,-2
53863,-1
53870,-1
53878,-1
53886,-1
53895,-1
53903,0
53910,1
53918,0
53926,0
53935,-1
53943,-3
53950,-2
53958,-2
53966,-2
53975,-2
53983,0
53991,4
53998,13
54006,20
54014,9
54023,-13
54031,-20
54038,-8
54046,1
54054,1
54063,0
54071,1
54079,1
54086,1
54094,1
54103,2
54111,2
54119,3
54126,2
54134,2
54142,3
54151,3
54159,4
54166,6
54174,8
54182,10
54191,11
54199,11
54207,12
54214,12
54222,12
54231,10
54239,9
54247,7
54254,3
54262,-1
54270,-3
54279,-5
54287,-5
54295,-6
54302,-6
54310,-7
54319,-6
54327,-6
54335,-6
54342,-5
54350,-5
54359,-5
54367,-4
54375,-4
54382,-4
54390,-3
54398,-2
54407,-2
54415,-2
54423,-2
54430,-2
54438,-2
54447,-2
54455,-2
54463,-1
54470,-1
54478,-2
54487,-1
54495,-1
54503,-1
54511,-2
54518,0
54526,0
54535,-1
54543,-1
54551,0
54558,1
54566,0
54575,-2
54583,-3
54591,-2
54598,-2
54606,-2
54615,-1
54623,0
54631,3
54639,12
54646,19
54654,10
54663,-12
54671,-20
54679,-9
54686,0
54694,1
54703,0
54711,0
54719,0
54727,1
54734,2
54743,2
54751,2
54759,2
54767,2
54774,3
54782,3
54791,4
54799,5
54807,6
54814,7
54822,8
54831,10
54839,11
54847,12
54855,12
54862,12
54871,12
54879,10
54887,7
54895,3
54902,-1
54910,-3
54919,-4
54927,-5
54935,-6
54943,-6
54950,-6
54959,-7
54967,-6
54975,-6
54983,-5
54990,-5
54999,-5
55007,-4
55015,-4
55023,-3
55030,-3
55038,-3
55047,-2
55055,-2
55063,-2
55071,-2
55078,-2
55087,-2
55095,-2
55103,-1
55111,-2
55118,-2
55127,-1
55135,-1
55143,0
55151,0
55159,-1
55166,-1
55175,-1
55183,-1
55191,-1
55199,0
55206,1
55215,0
55223,-1
55231,-2
55239,-3
55246,-2
55255,-1
55263,-2
55271,-1
55279,1
55287,5
55294,15
55303,19
55311,4
55319,-16
55327,-17
55334,-5
55343,1
55351,0
55359,0
55367,1
55375,0
55383,1
55391,2
55399,2
55407,2
55415,2
55422,2
55431,3
55439,3
55447,4
55455,4
55462,6
55471,8
55479,10
55487,11
55495,12
55503,12
55511,12
55519,12
55527,12
55535,10
55543,7
55550,3
55559,0
55567,-3
55575,-5
55583,-5
55591,-5
55599,-6
55607,-7
55615,-7
55623,-6
55631,-6
55639,-6
55647,-5
55655,-5
55663,-5
55671,-4
55678,-3
55687,-3
55695,-2
55703,-2
55711,-2
55719,-2
55727,-2
55735,-2
55743,-2
55751,-2
55759,-2
55767,-1
55775,0
55783,-1
55791,-1
55799,-1
55808,-1
55815,0
55823,0
55831,-1
55839,-1
55847,0
55855,0
55863,0
55871,-1
55879,-2
55887,-2
55895,-1
55903,-2
55911,-1
55919,0
55927,2
55936,8
55943,18
55951,16
55959,-3
55967,-19
55975,-14
55983,-2
55991,1
55999,0
56007,1
56015,2
56024,1
56031,1
56039,1
56047,2
56055,2
56064,3
56071,3
56079,3
56087,4
56095,5
56103,6
56111,7
56119,9
56127,11
56135,12
56143,12
56152,13
56159,13
56167,13
56175,11
56183,9
56192,6
56199,2
56207,0
56215,-2
56223,-4
56231,-4
56240,-5
56247,-5
56255,-6
56263,-5
56271,-5
56280,-5
56287,-4
56295,-5
56303,-5
56311,-4
56320,-3
56327,-3
56335,-2
56343,-2
56351,-2
56359,-2
56368,-1
56375,-1
56383,-1
56391,-2
56399,-2
56408,-2
56415,-1
56423,-1
56431,-1
56439,-1
56448,0
56456,0
56463,-1
56471,-1
56479,-1
56487,0
56496,0
56503,0
56511,0
56519,-1
56527,-2
56536,-2
56543,-2
56551,-2
56559,-1
56567,0
56576,3
56584,11
56591,18
56599,10
56607,-11
56615,-20
56624,-11
56631,-1
56639,0
56647,-1
56655,0
56664,0
56672,0
56679,0
56687,1
56695,1
56704,1
56712,2
56719,2
56727,3
56735,3
56743,4
56752,6
56759,7
56767,9
56775,10
56783,11
56792,12
56800,12
56807,12
56815,11
56823,10
56832,7
56840,3
56847,0
56855,-2
56863,-4
56871,-5
56880,-6
56888,-6
56895,-7
56903,-7
56911,-7
56920,-6
56928,-6
56935,-6
56943,-6
56951,-5
56960,-5
56968,-4
56975,-3
56983,-3
56991,-3
56999,-2
57008,-2
57016,-2
57023,-2
57031,-2
57039,-2
57048,-1
57056,-1
57063,-2
57071,-2
57079,-2
57088,0
57096,0
57104,-1
57111,-1
57119,-1
57127,-1
57136,-1
57144,0
57151,0
57159,0
57167,-1
57176,-2
57184,-2
57191,-1
57199,-1
57207,-1
57216,0
57224,4
57232,12
57239,19
57247,9
57255,-11
57264,-19
57272,-8
57279,1
57287,1
57295,0
57304,2
57312,1
57320,1
57327,2
57335,2
57344,1
57352,2
57360,2
57367,2
57375,3
57383,3
57392,5
57400,6
57407,8
57415,9
57423,11
57432,12
57440,12
57448,12
57455,13
57463,12
57472,10
57480,7
57488,4
57495,0
57503,-2
57511,-3
57520,-5
57528,-6
57536,-6
57543,-6
57551,-6
57560,-6
57568,-6
57576,-5
57583,-5
57591,-4
57600,-4
57608,-3
57616,-3
57623,-3
57631,-2
57639,-2
57648,-2
57656,-1
57664,-1
57671,-1
57679,-2
57688,-2
57696,-1
57704,-1
57711,-1
57719,-1
57728,-1
57736,-1
57744,-1
57752,-1
57759,-1
57767,-1
57776,-1
57784,-1
57792,0
57799,0
57807,-1
57816,-2
57824,-3
57832,-2
57839,-2
57847,-2
57856,-1
57864,1
57872,4
57880,13
57887,19
57895,7
57904,-14
57912,-18
57920,-7
57927,1
57935,2
57944,2
57952,1
57960,0
57968,0
57975,1
57984,1
57992,1
58000,2
58008,2
58015,3
58023,3
58032,4
58040,5
58048,7
58055,8
58063,9
58072,10
58080,11
58088,11
58096,12
58103,12
58112,12
58120,10
58128,8
58136,4
58143,0
58151,-3
58160,-4
58168,-4
58176,-5
58184,-6
58191,-6
58200,-6
58208,-6
58216,-6
58224,-6
58231,-5
58240,-4
58248,-4
58256,-4
58264,-4
58271,-4
58279,-4
58288,-3
58296,-2
58304,-2
58312,-1
58319,-2
58328,-2
58336,-1
58344,-2
58352,-1
58359,-1
58368,-1
58376,-2
58384,-1
58392,-1
58400,-1
58407,-1
58416,0
58424,0
58432,-1
58440,0
58447,0
58456,0
58464,-1
58472,-2
58480,-2
58487,-1
58496,-1
58504,-2
58512,-1
58520,2
58528,10
58535,19
58544,14
58552,-6
58560,-18
58568,-11
58575,-1
58584,1
58592,1
58600,1
58608,0
58616,1
58624,2
58632,3
58640,2
58648,2
58656,3
58663,3
58672,3
58680,4
58688,5
58696,6
58703,7
58712,9
58720,10
58728,11
58736,12
58744,13
58752,14
58760,13
58768,11
58776,8
58784,4
58791,1
58800,-2
58808,-3
58816,-3
58824,-4
58832,-5
58840,-5
58848,-5
58856,-5
58864,-5
58872,-4
58880,-3
58888,-4
58896,-4
58904,-4
58912,-2
58919,-1
58928,-1
58936,-2
58944,-2
58952,-2
58960,-2
58968,-2
58976,-2
58984,-2
58992,-2
59000,-1
59008,-1
59016,-1
59024,-1
59032,-1
59040,-1
59048,-1
59056,-1
59064,0
59072,0
59080,0
59088,1
59096,1
59104,0
59112,-1
59120,-2
59128,-2
59137,-1
59144,-1
59152,-1
59160,0
59168,3
59176,12
59184,19
59192,11
59200,-10
59208,-18
59216,-9
59224,0
59232,0
59240,0
59248,1
59256,0
59265,0
59272,1
59280,2
59288,2
59296,2
59304,2
59312,2
59320,3
59328,3
59336,4
59344,6
59352,7
59360,8
59368,10
59376,11
59384,11
59393,13
59400,13
59408,11
59416,10
59424,8
59432,5
59440,1
59448,-2
59456,-4
59464,-4
59472,-4
59481,-5
59488,-6
59496,-6
59504,-6
59512,-6
59521,-5
59528,-5
59536,-4
59544,-4
59552,-3
59560,-3
59568,-2
59576,-1
59584,-1
59592,-1
59600,-1
59609,-2
59616,-2
59624,-2
59632,-2
59640,-1
59649,-1
59656,-1
59664,-1
59672,0
59680,0
59688,-1
59697,-1
59704,-1
59712,-1
59720,0
59728,1
59737,0
59744,-1
59752,-2
59760,-3
59768,-2
59777,-1
59784,-2
59792,-1
59800,1
59808,6
59816,16
59825,19
59832,2
59840,-17
59848,-17
59856,-4
59865,1
59872,0
59880,1
59888,2
59896,0
59905,0
59913,2
59920,1
59928,1
59936,2
59944,2
59953,2
59960,3
59968,4
59976,5
59984,6
59993,8
60000,10
60008,11
60016,12
60024,12
60033,13
60041,12
60048,11
60056,9
60064,6
60072,2
60081,-1
60088,-3
60096,-4
60104,-5
60112,-5
60121,-6
60129,-6
60136,-6
60144,-6
60152,-5
60161,-4
60169,-4
60176,-3
60184,-3
60192,-3
60200,-2
60209,-2
60216,-1
60224,-1
60232,-2
60240,-2
60249,-2
60257,-2
60264,-2
60272,-2
60280,-1
60289,-1
60297,-1
60304,-1
60312,-1
60320,-1
60328,-1
60337,-1
60345,-1
60352,0
60360,0
60368,0
60377,-1
60385,-2
60392,-3
60400,-2
60408,-1
60417,-1
60425,-1
60432,0
60440,3
60448,13
60456,19
60465,9
60473,-12
60480,-18
60488,-8
60496,1
60505,1
60513,1
60520,1
60528,1
60536,2
60545,3
60553,2
60561,2
60568,3
60576,3
60584,3
60593,3
60601,4
60608,5
60616,6
60624,7
60633,9
60641,11
60648,12
60656,12
60664,12
60673,13
60681,12
60689,10
60696,8
60704,4
60712,0
60721,-2
60729,-4
60736,-4
60744,-5
60752,-5
60761,-6
60769,-5
60777,-6
60784,-5
60792,-5
60801,-4
60809,-4
60817,-3
60824,-3
60832,-2
60840,-2
60849,-2
60857,-1
60864,-1
60872,-1
60880,-1
60889,-1
60897,-1
60905,-1
60912,-1
60920,-1
60929,-1
60937,-1
60945,-1
60952,0
60960,0
60968,0
60977,-1
60985,-2
60993,-2
61000,-2
61008,-2
61017,-2
61025,0
61033,1
61040,4
61048,12
61057,16
61065,2
61073,-16
61080,-18
61088,-5
61096,1
61105,0
61113,0
61121,1
61128,1
61136,1
61145,2
61153,1
61161,2
61168,2
61176,3
61185,2
61193,3
61201,4
61209,5
61216,6
61224,8
61233,9
61241,10
61249,11
61256,12
61264,12
61273,11
61281,11
61289,9
61296,5
61304,1
61313,-2
61321,-4
61329,-5
61337,-5
61344,-6
61352,-7
61361,-7
61369,-6
61377,-6
61384,-6
61392,-5
61401,-5
61409,-5
61417,-4
61425,-4
61432,-4
61441,-3
61449,-3
61457,-3
61465,-2
61472,-2
61480,-2
61489,-2
61497,-1
61505,-1
61512,-2
61520,-2
61529,-2
61537,-1
61545,-1
61553,-1
61560,0
61569,1
61577,1
61585,1
61593,-1
61600,-2
61608,-2
61617,-1
61625,-2
61633,-1
61641,1
61648,4
61657,13
61665,18
61673,6
61681,-14
61688,-17
61697,-6
61705,1
61713,1
61721,0
61728,1
61736,0
61745,1
61753,1
61761,1
61769,1
61776,2
61785,2
61793,2
61801,3
61809,3
61816,5
61825,7
61833,8
61841,9
61849,11
61857,12
61864,12
61873,13
61881,13
61889,11
61897,9
61904,6
61913,2
61921,-1
61929,-3
61937,-4
61944,-4
61953,-5
61961,-5
61969,-5
61977,-5
61985,-5
61992,-5
62001,-5
62009,-4
62017,-4
62025,-3
62032,-3
62041,-2
62049,-2
62057,-2
62065,-1
62073,-1
62081,-1
62089,-2
62097,-1
62105,-1
62113,-1
62120,-1
62129,-1
62137,-1
62145,-1
62153,-1
62160,0
62169,0
62177,1
62185,1
62193,1
62201,0
62209,-2
62217,-2
62225,-1
62233,-1
62241,-1
62248,0
62257,1
62265,7
62273,17
62281,17
62289,-1
62297,-17
62305,-14
62313,-2
62321,1
62329,0
62337,1
62345,1
62353,1
62361,1
62369,1
62376,1
62385,2
62393,2
62401,2
62409,3
62417,3
62425,4
62433,5
62441,6
62449,8
62457,9
62465,11
62473,12
62481,13
62489,13
62497,12
62505,11
62513,8
62521,4
62529,0
62537,-3
62545,-4
62553,-5
62561,-5
62569,-5
62577,-6
62585,-6
62593,-6
62601,-6
62609,-6
62617,-5
62625,-4
62633,-4
62641,-4
62649,-4
62657,-4
62665,-3
62673,-2
62681,-2
62689,-2
62697,-1
62705,-1
62713,-2
62722,-1
62729,-1
62737,-1
62745,-1
62753,-1
62761,-2
62769,-1
62777,0
62785,0
62793,-1
62801,0
62809,1
62817,1
62825,0
62833,-2
62841,-3
62850,-1
62857,-1
62865,-1
62873,-1
62881,1
62889,7
62897,16
62905,18
62913,2
62921,-17
62929,-16
62938,-4
62945,2
62953,1
62961,1
62969,1
62978,0
62985,1
62993,1
63001,2
63009,2
63017,3
63025,3
63033,3
63041,3
63049,4
63057,5
63066,7
63073,8
63081,10
63089,11
63097,12
63106,13
63113,13
63121,12
63129,11
63137,9
63145,6
63154,3
63161,0
63169,-2
63177,-4
63185,-4
63194,-5
63201,-5
63209,-5
63217,-6
63225,-6
63234,-6
63241,-5
63249,-5
63257,-5
63265,-4
63273,-4
63282,-3
63289,-2
63297,-2
63305,-2
63313,-1
63322,-1
63329,-1
63337,-1
63345,-1
63353,-1
63362,-1
63370,-1
63377,-2
63385,-1
63393,0
63401,0
63410,-1
63417,0
63425,1
63433,1
63441,0
63450,-2
63457,-3
63465,-2
63473,-2
63481,-2
63490,-1
63498,1
63505,4
63513,13
63521,18
63529,4
63538,-15
63545,-18
63553,-7
63561,0
63569,0
63578,0
63586,1
63593,1
63601,2
63609,2
63618,0
63626,1
63633,2
63641,2
63649,2
63657,3
63666,3
63673,3
63681,5
63689,7
63697,9
63706,11
63714,12
63721,12
63729,11
63737,11
63746,10
63754,8
63761,5
63769,2
63777,-1
63785,-4
63794,-5
63802,-5
63809,-5
63817,-6
63825,-6
63834,-6
63842,-6
63849,-7
63857,-6
63865,-5
63874,-5
63882,-5
63889,-4
63897,-4
63905,-3
63913,-3
63922,-2
63930,-2
63937,-2
63945,-2
63953,-2
63962,-2
63970,-2
63977,-2
63985,-1
63993,-1
64002,-1
64010,-1
64018,-1
64025,-1
64033,-1
64041,-1
64050,-1
64058,-1
64065,0
64073,0
64081,-1
64090,-1
64098,-2
64106,-2
64113,-2
64121,-1
64130,-1
64138,0
64146,1
64153,6
64161,16
64169,16
64178,0
64186,-17
64193,-16
64201,-4
64209,1
64218,1
64226,1
64234,1
64241,0
64249,1
64258,1
64266,1
64274,2
64281,1
64289,2
64297,2
64306,3
64314,3
64321,5
64329,6
64337,7
64346,9
64354,11
64362,11
64369,11
64377,12
64386,12
64394,11
64402,9
64409,5
64417,1
64425,-1
64434,-3
64442,-4
64450,-5
64457,-6
64465,-6
64474,-6
64482,-6
64490,-6
64497,-6
64505,-5
64514,-5
64522,-5
64530,-4
64537,-4
64545,-4
64553,-3
64562,-3
64570,-2
64578,-2
64585,-2
64593,-3
64602,-2
64610,-2
64618,-1
64625,-1
64633,-1
64642,-1
64650,-2
64658,-1
64666,-1
64673,-1
64681,-1
64690,0
64698,-1
64706,-1
64713,0
64721,0
64730,0
64738,-1
64746,-2
64754,-3
64761,-2
64770,-1
64778,-1
64786,-1
64794,0
64801,4
64809,13
64818,18
64826,7
64834,-13
64841,-18
64849,-7
64858,1
64866,1
64874,0
64882,1
64889,1
64898,1
64906,1
64914,1
64922,1
64929,2
64937,2
64946,2
64954,3
64962,4
64969,4
64977,6
64986,8
64994,9
65002,11
65010,12
65017,12
65026,13
65034,13
65042,11
65050,9
65057,7
65065,3
65074,-1
65082,-3
65090,-5
65098,-6
65105,-6
65114,-6
65122,-6
65130,-6
65138,-6
65145,-6
65154,-5
65162,-5
65170,-5
65178,-5
65186,-4
65193,-4
65202,-3
65210,-3
65218,-3
65226,-2
65233,-2
65242,-2
65250,-2
65258,-2
65266,-2
65273,-2
65282,-1
65290,-1
65298,-1
65306,-1
65314,-1
65321,-1
65330,0
65338,-1
65346,-1
65354,-2
65361,-1
65370,-1
65378,-1
65386,0
65394,0
65401,0
65410,-1
65418,-2
65426,-2
65434,-1
65442,-1
65449,-2
65458,-1
65466,1
65474,7
65482,16
65489,16
65498,-3
65506,-18
65514,-14
65522,-2
65530,1
65538,0
65546,0
65554,0
65562,0
65570,1
65577,1
65586,1
65594,2
65602,3
65610,2
65618,2
65626,3
65634,3
65642,4
65650,6
65658,8
65666,9
65674,10
65682,11
65690,12
65698,12
65705,12
65714,11
65722,9
65730,5
65738,1
65746,-2
65754,-4
65762,-5
65770,-5
65778,-6
65786,-6
65794,-7
65802,-6
65810,-6
65818,-6
65826,-6
65835,-6
65842,-6
65850,-5
65858,-4
65866,-4
65874,-4
65882,-3
65890,-2
65898,-2
65906,-2
65914,-2
65922,-2
65930,-2
65938,-2
65946,-2
65954,-2
65963,-2
65970,-1
65978,-1
65986,-1
65994,-1
66002,-1
66010,-1
66018,-1
66026,-1
66034,-1
66042,0
66050,0
66058,0
66066,-1
66074,-1
66082,-2
66091,-2
66098,-1
66106,-1
66114,-1
66122,0
66130,3
66138,12
66146,18
66154,9
66162,-12
66170,-19
66179,-9
66186,0
66194,1
66202,0
66210,1
66219,0
66226,0
66234,1
66242,0
66250,1
66258,2
66267,2
66274,2
66282,3
66290,3
66298,4
66307,5
66314,6
66322,8
66330,10
66338,11
66347,12
66354,12
66362,12
66370,11
66378,10
66386,7
66395,3
66402,-1
66410,-3
66418,-5
66426,-5
66435,-5
66442,-6
66450,-6
66458,-6
66466,-6
66475,-6
66483,-5
66490,-5
66498,-5
66506,-5
66514,-5
66523,-5
66530,-4
66538,-3
66546,-2
66554,-2
66563,-2
66570,-2
66578,-2
66586,-3
66594,-3
66603,-2
66611,-2
66618,-2
66626,-1
66634,-1
66642,-1
66651,-1
66658,-2
66666,-2
66674,-1
66682,-1
66691,-1
66699,0
66706,1
66714,1
66722,0
66731,-1
66739,-2
66746,-2
66754,-1
66762,-1
66770,-1
66779,0
66786,4
66794,12
66802,19
66810,9
66819,-11
66827,-18
66834,-8
66842,0
66850,1
66859,1
66867,1
66874,0
66882,0
66890,1
66898,1
66907,1
66915,2
66922,2
66930,2
66938,3
66947,3
66955,4
66962,6
66970,7
66978,8
66987,10
66995,11
67002,11
67010,12
67018,12
67026,12
67035,10
67043,6
67050,3
67058,0
67066,-3
67075,-5
67083,-6
67090,-6
67098,-6
67106,-6
67115,-7
67123,-7
67131,-6
67138,-6
67146,-6
67154,-5
67163,-5
67171,-4
67178,-4
67186,-3
67194,-3
67203,-3
67211,-2
67218,-3
67226,-3
67234,-2
67243,-3
67251,-3
67259,-2
67266,-2
67274,-3
67282,-2
67291,-1
67299,-1
67306,-1
67314,-1
67322,-1
67331,-1
67339,-1
67347,-1
67354,0
67362,0
67371,0
67379,0
67387,-1
67394,-2
67402,-2
67410,-1
67419,-2
67427,-1
67434,1
67442,5
67450,14
67459,18
67467,3
67475,-16
67482,-17
67490,-4
67499,2
67507,0
67515,0
67522,1
67530,0
67538,1
67547,1
67555,0
67563,1
67570,3
67578,3
67587,3
67595,4
67603,4
67610,5
67618,6
67627,8
67635,9
67643,10
67650,12
67658,12
67666,12
67675,12
67683,11
67691,9
67698,6
67706,3
67715,0
67723,-3
67731,-4
67738,-5
67746,-5
67755,-6
67763,-6
67771,-6
67779,-6
67786,-7
67794,-6
67803,-6
67811,-5
67819,-5
67826,-4
67834,-3
67843,-3
67851,-3
67859,-2
67866,-2
67874,-2
67883,-2
67891,-2
67899,-2
67907,-2
67914,-2
67922,-2
67931,-2
67939,-1
67947,-1
67954,-1
67962,-1
67971,-1
67979,0
67987,0
67995,0
68002,0
68011,0
68019,0
68027,-1
68035,-2
68042,-2
68050,-1
68059,-2
68067,-1
68075,0
68082,4
68090,12
68099,18
68107,9
68115,-12
68123,-19
68130,-9
68139,0
68147,0
68155,0
68163,1
68170,0
68178,0
68187,1
68195,1
68203,1
68211,2
68218,2
68227,2
68235,3
68243,3
68251,3
68258,5
68267,6
68275,8
68283,9
68291,11
68298,11
68306,12
68315,12
68323,11
68331,10
68339,7
68346,3
68355,0
68363,-3
68371,-4
68379,-5
68386,-5
68395,-5
68403,-6
68411,-6
68419,-7
68427,-7
68434,-6
68443,-6
68451,-5
68459,-5
68467,-4
68474,-3
68483,-3
68491,-3
68499,-3
68507,-2
68514,-2
68523,-3
68531,-3
68539,-3
68547,-2
68555,-2
68562,-3
68571,-2
68579,-2
68587,-1
68595,-1
68602,-1
68611,-1
68619,-1
68627,-1
68635,0
68643,0
68651,-1
68659,-2
68667,-3
68675,-2
68683,-2
68690,-1
68699,-1
68707,0
68715,2
68723,11
68730,18
68739,9
68747,-11
68755,-18
68763,-9
68771,0
68779,1
68787,1
68795,1
68803,0
68811,1
68818,2
68827,1
68835,1
68843,1
68851,2
68858,2
68867,3
68875,3
68883,3
68891,5
68899,7
68907,8
68915,9
68923,10
68931,11
68939,11
68946,12
68955,11
68963,8
68971,6
68979,2
68987,-1
68995,-4
69003,-5
69011,-5
69019,-6
69027,-6
69035,-7
69043,-7
69051,-6
69059,-6
69067,-6
69075,-5
69083,-4
69091,-5
69099,-6
69107,-4
69115,-3
69123,-3
69131,-2
69139,-2
69147,-2
69155,-2
69163,-2
69171,-3
69179,-3
69187,-3
69195,-2
69203,-2
69211,-2
69219,-2
69227,-1
69235,-1
69243,-1
69251,0
69259,1
69267,0
69275,-1
69283,-2
69292,-3
69299,-2
69307,-2
69315,-1
69323,-1
69331,0
69339,4
69347,12
69355,19
69363,9
69371,-12
69379,-20
69387,-9
69395,1
69403,1
69411,0
69420,2
69427,1
69435,0
69443,1
69451,1
69459,1
69467,2
69475,2
69483,2
69491,3
69499,4
69507,4
69515,5
69523,7
69531,9
69539,10
69548,10
69555,10
69563,11
69571,10
69579,10
69587,8
69595,6
69603,2
69611,-1
69619,-4
69627,-5
69636,-5
69643,-6
69651,-6
69659,-6
69667,-7
69676,-7
69683,-7
69691,-6
69699,-6
69707,-6
69715,-5
69724,-5
69731,-4
69739,-4
69747,-4
69755,-3
69764,-3
69771,-2
69779,-2
69787,-2
69795,-3
69804,-3
69811,-2
69819,-2
69827,-3
69835,-2
69843,-1
69852,-1
69859,-1
69867,1
69875,1
69883,0
69892,-1
69899,-2
69907,-2
69915,-2
69923,-2
69932,-2
69940,0
69947,3
69955,9
69963,18
69971,13
69980,-8
69987,-19
69995,-10
70003,0
70011,1
70020,0
70027,1
70035,0
70043,0
70051,1
70060,1
70068,1
70075,2
70083,2
70091,2
70099,3
70108,3
70115,4
70123,5
70131,7
70139,8
70148,9
70155,11
70163,11
70171,12
70179,12
70188,11
70196,10
70203,7
70211,3
70219,-1
70227,-3
70236,-5
70243,-6
70251,-6
70259,-6
70267,-7
70276,-7
70284,-7
70291,-6
70299,-6
70307,-6
70316,-6
70324,-5
70331,-4
70339,-3
70347,-4
70355,-4
70364,-3
70372,-2
70379,-2
70387,-3
70395,-3
70404,-3
70412,-3
70419,-3
70427,-3
70435,-2
70444,-2
70452,-2
70459,-2
70467,0
70475,1
70483,0
70492,-1
70500,-2
70507,-2
70515,-2
70523,-2
70532,-2
70540,0
70547,2
70555,8
70563,16
70572,12
70580,-8
70588,-20
70595,-12
70603,0
70611,1
70620,0
70628,1
70635,1
70643,1
70651,1
70660,1
70668,1
70675,2
70683,2
70691,2
70700,2
70708,3
70716,4
70723,5
70731,7
70739,8
70748,9
70756,10
70763,11
70771,11
70779,11
70788,10
70796,9
70803,6
70811,3
70819,-1
70828,-3
70836,-5
70844,-6
70851,-6
70859,-7
70867,-7
70876,-7
70884,-7
70891,-7
70899,-6
70907,-6
70916,-6
70924,-6
70932,-5
70939,-5
70947,-4
70956,-4
70964,-3
70972,-3
70979,-3
70987,-3
70995,-3
71004,-3
71012,-3
71020,-2
71027,-3
71035,-3
71044,-3
71052,-2
71060,-2
71067,-1
71075,0
71084,0
71092,-1
71100,-1
71107,-2
71115,-2
71123,-1
71132,-2
71140,-2
71148,0
71155,2
71163,8
71172,16
71180,13
71188,-6
71195,-19
71203,-12
71212,-1
71220,1
71228,0
71235,2
71243,1
71251,0
71260,1
71268,1
71276,1
71283,2
71291,2
71300,1
71308,2
71316,3
71323,4
71331,5
71340,7
71348,8
71356,9
71364,10
71371,11
71379,11
71388,11
71396,11
71404,9
71411,7
71419,3
71428,-1
71436,-3
71444,-5
71451,-6
71459,-6
71468,-7
71476,-7
71484,-7
71492,-7
71499,-6
71507,-6
71516,-6
71524,-6
71532,-5
71539,-5
71547,-5
71556,-4
71564,-3
71572,-3
71580,-3
71587,-3
71596,-3
71604,-3
71612,-2
71620,-2
71627,-2
71635,-2
71644,-2
71652,-2
71660,-1
71667,-1
71675,0
71684,1
71692,1
71700,1
71708,-1
71715,-2
71724,-3
71732,-2
71740,-2
71748,-2
71755,-1
71763,3
71772,11
71780,18
71788,10
71796,-10
71803,-18
71812,-9
71820,1
71828,1
71836,0
71843,1
71852,0
71860,0
71868,1
71876,1
71883,1
71891,2
71900,2
71908,2
71916,2
71924,3
71931,4
71940,6
71948,7
71956,8
71964,9
71971,11
71980,12
71988,12
71996,12
72004,11
72012,9
72019,6
72028,2
72036,-1
72044,-3
72052,-4
72059,-5
72068,-6
72076,-6
72084,-6
72092,-5
72100,-6
72108,-6
72116,-6
72124,-6
72132,-6
72140,-5
72147,-4
72156,-3
72164,-4
72172,-4
72180,-3
72187,-2
72196,-2
72204,-2
72212,-2
72220,-2
72228,-2
72236,-2
72244,-1
72252,-2
72260,-2
72268,-1
72275,-1
72284,-1
72292,0
72300,1
72308,0
72315,-1
72324,-2
72332,-3
72340,-2
72348,-2
72356,-3
72364,-2
72372,1
72380,4
72388,12
72396,19
72403,8
72412,-12
72420,-18
72428,-8
72436,1
72444,1
72452,1
72460,2
72468,1
72476,1
72484,2
72492,1
72500,2
72508,2
72516,2
72524,2
72531,3
72540,4
72548,5
72556,6
72564,7
72572,9
72580,11
72588,11
72596,12
72604,12
72612,13
72620,11
72628,9
72636,6
72644,2
72652,-1
72660,-3
72668,-5
72676,-6
72684,-7
72692,-7
72700,-6
72708,-6
72716,-6
72724,-6
72732,-4
72740,-4
72748,-4
72756,-4
72764,-4
72772,-4
72780,-3
72788,-2
72796,-2
72804,-2
72812,-1
72820,-1
72828,-1
72836,-2
72844,-2
72852,-1
72860,-1
72868,-1
72877,-1
72884,-1
72892,-1
72900,0
72908,1
72916,1
72924,0
72932,-1
72940,-2
72948,-2
72956,-1
72964,-1
72972,-1
72980,0
72988,2
72996,10
73005,17
73012,10
73020,-10
73028,-20
73036,-10
73044,0
73052,1
73060,0
73068,1
73076,1
73084,0
73093,1
73100,1
73108,1
73116,2
73124,3
73133,2
73140,3
73148,3
73156,4
73164,5
73172,8
73180,9
73188,10
73196,11
73204,11
73212,12
73221,12
73228,12
73236,10
73244,7
73252,3
73261,0
73268,-3
73276,-4
73284,-5
73292,-4
73300,-5
73309,-6
73316,-6
73324,-6
73332,-6
73340,-5
73349,-5
73356,-5
73364,-4
73372,-4
73380,-3
73389,-3
73396,-2
73404,-2
73412,-1
73420,-1
73428,-1
73437,-1
73444,-1
73452,-2
73460,-2
73468,-2
73477,-1
73484,0
73492,0
73500,0
73508,-1
73517,0
73525,0
73532,0
73540,-1
73548,-2
73556,-2
73565,-2
73572,-2
73580,-2
73588,0
73596,2
73605,7
73612,15
73620,13
73628,-4
73636,-19
73645,-14
73653,-3
73660,1
73668,0
73676,1
73684,1
73693,0
73700,0
73708,1
73716,1
73724,1
73733,1
73741,1
73748,1
73756,2
73764,3
73773,4
73781,6
73788,7
73796,8
73804,10
73812,10
73821,11
73828,11
73836,10
73844,9
73852,6
73861,2
73869,-2
73876,-3
73884,-5
73892,-8
73901,-10
73909,-11
73916,-11
73924,-11
73932,-11
73940,-11
73949,-11
73957,-10
73964,-10
73972,-10
73980,-9
73989,-9
73997,-8
74004,-8
74012,-8
74020,-8
74029,-7
74037,-7
74044,-7
74052,-7
74060,-7
74068,-7
74077,-6
74085,-6
74092,-6
74100,-6
74108,-6
74117,-6
74125,-5
74132,-5
74140,-5
74148,-4
74157,-2
74165,-2
74173,-2
74180,-3
74188,-4
74196,-4
74205,-3
74213,-3
74220,-3
74228,-2
74236,0
74245,6
74253,15
74260,12
74268,-6
74276,-19
74285,-13
74293,-2
74301,0
74308,-1
74316,0
74324,0
74333,-1
74341,-1
74348,0
74356,0
74364,1
74373,1
74381,2
74389,3
74396,3
74404,3
74413,4
74421,6
74429,7
74436,9
74444,11
74452,11
74461,12
74469,12
74476,11
74484,10
74492,7
74501,4
74509,0
74517,-3
74524,-5
74532,-6
74541,-6
74549,-6
74557,-7
74564,-7
74572,-7
74580,-7
74589,-7
74597,-6
74605,-6
74612,-6
74620,-5
74629,-5
74637,-4
74645,-4
74652,-4
74660,-3
74669,-3
74677,-3
74685,-3
74692,-3
74700,-2
74708,-2
74717,-2
74725,-2
74733,-2
74740,-2
74748,-1
74757,-1
74765,0
74773,0
74780,-1
74788,-1
74797,-1
74805,-1
74813,-1
74821,-1
74828,-1
74836,0
74845,1
74853,0
74861,0
74868,-2
74876,-3
74885,-2
74893,-2
74901,-2
74908,-1
74916,0
74925,3
74933,10
74941,18
74949,11
74956,-9
74964,-18
74973,-9
74981,0
74989,1
74996,0
75004,1
75013,0
75021,0
75029,2
75037,2
75044,1
75053,2
75061,2
75069,2
75077,3
75084,3
75092,4
75101,5
75109,7
75117,8
75124,10
75132,11
75141,12
75149,12
75157,13
75165,12
75172,10
75181,8
75189,4
75197,0
75205,-2
75212,-4
75220,-5
75229,-6
75237,-5
75245,-5
75253,-6
75260,-6
75269,-6
75277,-5
75285,-5
75293,-5
75300,-5
75309,-5
75317,-4
75325,-3
75333,-3
75340,-2
75348,-2
75357,-1
75365,-1
75373,-1
75381,-1
75388,-2
75397,-2
75405,-1
75413,-1
75421,-1
75428,-1
75437,-1
75445,0
75453,-1
75461,0
75469,0
75476,0
75485,-1
75493,-1
75501,-1
75509,-1
75516,-2
75525,-1
75533,-1
75541,-1
75549,-1
75556,1
75565,1
75573,0
75581,-1
75589,-2
75597,-2
75604,-1
75613,-1
75621,-1
75629,0
75637,2
75644,9
75653,17
75661,13
75669,-5
75677,-18
75685,-12
75693,-1
75701,2
75709,1
75717,1
75725,1
75732,1
75741,2
75749,2
75757,1
75765,2
75772,2
75781,3
75789,3
75797,4
75805,4
75813,5
75821,7
75829,8
75837,9
75845,11
75853,11
75860,12
75869,13
75877,13
75885,12
75893,10
75901,6
75909,2
75917,-1
75925,-3
75933,-4
75941,-5
75949,-5
75957,-5
75965,-6
75973,-5
75981,-6
75988,-5
75997,-5
76005,-4
76013,-4
76021,-4
76029,-4
76037,-3
76045,-2
76053,-2
76061,-2
76069,-1
76077,-1
76085,-1
76093,-1
76101,-1
76109,-2
76118,-2
76125,-1
76133,-1
76141,-1
76149,-1
76157,-1
76165,-1
76173,-1
76181,-1
76189,0
76197,-1
76205,-1
76213,-1
76221,-1
76229,-1
76237,-1
76246,0
76253,0
76261,-1
76269,-1
76277,-2
76285,-2
76293,-2
76301,-1
76309,-2
76317,-1
76325,1
76334,6
76341,14
76349,16
76357,1
76365,-17
76374,-17
76381,-4
76389,1
76397,0
76405,0
76413,1
76421,0
76429,0
76437,1
76445,1
76453,1
76462,2
76469,2
76477,2
76485,2
76493,3
76502,4
76509,5
76517,6
76525,8
76533,9
76541,10
76550,10
76557,11
76565,12
76573,11
76581,9
76590,6
76597,2
76605,-1
76613,-4
76621,-5
76630,-6
76637,-6
76645,-6
76653,-6
76661,-6
76669,-7
76678,-7
76685,-6
76693,-6
76701,-6
76709,-5
76718,-5
76725,-4
76733,-4
76741,-3
76749,-3
76758,-2
76766,-2
76773,-2
76781,-2
76789,-2
76797,-2
76806,-1
76813,-1
76821,-1
76829,-2
76837,-2
76846,-1
76853,-1
76861,-1
76869,-1
76877,-1
76886,-1
76894,-1
76901,-1
76909,-1
76917,-1
76925,-1
76934,-1
76941,-1
76949,0
76957,1
76965,1
76974,0
76982,-1
76989,-2
76997,-1
77005,-1
77014,-1
77022,-1
77029,1
77037,6
77045,14
77053,16
77062,3
77069,-14
77077,-15
77085,-4
77093,1
77102,0
77110,1
77117,0
77125,0
77133,0
77142,1
77150,0
77157,1
77165,2
77173,2
77181,2
77190,3
77198,3
77205,4
77213,5
77221,7
77230,9
77238,10
77245,11
77253,12
77261,13
77270,13
77278,12
77285,10
77293,7
77301,3
77309,0
77318,-3
77326,-5
77333,-6
77341,-6
77349,-6
77358,-6
77366,-6
77373,-6
77381,-6
77389,-5
77398,-5
77406,-5
77414,-5
77421,-4
77429,-3
77437,-3
77446,-3
77454,-3
77461,-2
77469,-2
77477,-2
77486,-2
77494,-2
77501,-2
77509,-1
77517,-1
77526,-1
77534,-1
77542,-1
77549,-2
77557,-2
77565,-1
77574,-1
77582,-1
77589,-1
77597,-1
77605,-1
77614,-1
77622,-1
77630,0
77637,1
77645,1
77654,-1
77662,-2
77670,-3
77677,-3
77685,-3
77693,-2
77702,-1
77710,1
77717,6
77725,15
77733,18
77742,2
77750,-15
77758,-15
77765,-4
77773,1
77782,0
77790,1
77798,0
77805,0
77813,1
77821,2
77830,2
77838,2
77846,2
77853,2
77861,2
77870,2
77878,3
77886,4
77893,6
77901,7
77910,9
77918,11
77926,13
77933,12
77941,13
77949,14
77958,13
77966,10
77974,6
77981,3
77989,0
77998,-3
78006,-4
78014,-5
78021,-5
78029,-6
78038,-5
78046,-5
78054,-6
78062,-6
78069,-5
78077,-5
78086,-4
78094,-4
78102,-4
78109,-3
78117,-3
78126,-3
78134,-3
78142,-2
78149,-1
78157,-1
78166,-1
78174,-1
78182,-1
78190,-1
78197,-1
78205,-1
78214,-2
78222,-2
78230,-1
78237,0
78245,0
78254,-1
78262,-1
78270,-1
78278,-1
78285,-1
78294,-1
78302,0
78310,1
78318,1
78325,0
78333,-1
78342,-1
78350,-2
78358,-2
78365,-1
78373,-1
78382,-1
78390,0
78398,4
78406,13
78413,18
78422,7
78430,-13
78438,-17
78446,-7
78453,1
78461,1
78470,1
78478,1
78486,0
78494,0
78501,2
78510,2
78518,2
78526,2
78534,2
78541,2
78550,3
78558,3
78566,4
78574,5
78581,7
78589,8
78598,10
78606,12
78614,12
78622,13
78629,14
78638,13
78646,11
78654,8
78662,4
78669,1
78678,-2
78686,-4
78694,-5
78702,-5
78710,-5
78717,-6
78726,-6
78734,-6
78742,-6
78750,-5
78757,-5
78766,-5
78774,-4
78782,-4
78790,-3
78797,-3
78806,-3
78814,-2
78822,-1
78830,-1
78838,-1
78845,-1
78854,-1
78862,-1
78870,-1
78878,-1
78885,-1
78894,-2
78902,-2
78910,-1
78918,-1
78926,-1
78934,-1
78942,0
78950,0
78958,-1
78966,-1
78973,0
78982,0
78990,0
78998,-1
79006,-2
79013,-3
79022,-2
79030,-2
79038,-2
79046,-1
79054,1
79062,6
79070,15
79078,16
79086,1
79094,-16
79101,-15
79110,-4
79118,1
79126,0
79134,1
79142,1
79150,0
79158,1
79166,1
79174,1
79182,2
79190,2
79198,2
79206,3
79214,3
79222,3
79229,5
79238,6
79246,7
79254,8
79262,10
79270,11
79278,12
79286,13
79294,13
79302,11
79310,9
79318,6
79326,2
79334,-1
79342,-4
79350,-5
79358,-5
79366,-5
79374,-6
79382,-6
79390,-6
79398,-6
79406,-5
79414,-5
79422,-5
79430,-4
79438,-4
79446,-4
79454,-4
79462,-3
79470,-2
79478,-2
79486,-1
79494,-1
79502,-1
79510,-1
79518,-1
79526,-1
79534,-1
79542,-1
79550,-1
79558,-1
79566,-1
79575,-2
79582,-1
79590,-1
79598,-1
79606,-1
79614,1
79622,1
79630,1
79638,0
79646,-1
79654,-2
79662,-1
79670,-1
79678,-2
79686,-1
79694,1
79703,7
79710,17
79718,16
79726,-3
79734,-18
79742,-14
79750,-2
79758,2
79766,1
79774,2
79782,2
79791,1
79798,2
79806,2
79814,2
79822,2
79831,3
79838,3
79846,4
79854,4
79862,4
79870,6
79878,7
79886,8
79894,9
79902,11
79910,12
79919,12
79926,13
79934,13
79942,12
79950,10
79959,6
79966,2
79974,0
79982,-3
79990,-4
79998,-5
80007,-5
80014,-6
80022,-6
80030,-6
80038,-6
80047,-6
80054,-5
80062,-5
80070,-4
80078,-4
80087,-4
80094,-3
80102,-3
80110,-2
80118,-2
80126,-1
80135,-1
80142,-2
80150,-2
80158,-2
80166,-1
80175,0
80182,-1
80190,-2
80198,-2
80206,-1
80215,-1
80223,-1
80230,0
80238,1
80246,0
80254,-1
80263,-2
80270,-2
80278,-2
80286,-1
80294,-2
80303,-1
80310,1
80318,6
80326,14
80334,15
80343,-1
80351,-18
80358,-16
80366,-4
80374,1
80382,1
80391,1
80398,1
80406,0
80414,0
80422,1
80431,1
80439,1
80446,2
80454,2
80462,2
80471,2
80479,3
80486,4
80494,5
80502,6
80510,8
80519,9
80526,10
80534,11
80542,11
80550,11
80559,9
80567,7
80574,4
80582,0
80590,-3
80599,-5
80607,-6
80614,-6
80622,-7
80630,-7
80638,-7
80647,-6
80655,-7
80662,-7
80670,-6
80678,-6
80687,-5
80695,-5
80702,-5
80710,-5
80718,-4
80727,-3
80735,-3
80742,-3
80750,-3
80758,-3
80766,-3
80775,-3
80783,-3
80790,-2
80798,-2
80806,-2
80815,-2
80823,-2
80830,-1
80838,-1
80846,-1
80855,-1
80863,0
80871,1
80878,0
80886,0
80894,-1
80903,-2
80911,-2
80918,-2
80926,-1
80934,0
80943,1
80951,7
80958,17
80966,16
80974,-1
80983,-15
80991,-12
80999,-2
81006,2
81014,1
81022,1
81031,1
81039,1
81046,2
81054,2
81062,2
81071,2
81079,2
81087,2
81094,3
81102,3
81111,4
81119,4
81127,6
81134,7
81142,8
81150,10
81159,11
81167,12
81174,12
81182,12
81190,11
81199,9
81207,5
81215,2
81222,-1
81230,-3
81239,-5
81247,-5
81255,-6
81262,-6
81270,-6
81278,-6
81287,-6
81295,-5
81303,-5
81310,-5
81318,-4
81327,-3
81335,-3
81343,-3
81350,-2
81358,-2
81367,-2
81375,-1
81383,-1
81390,-2
81398,-2
81406,-2
81415,-1
81423,-1
81431,-1
81438,-1
81446,0
81455,0
81463,0
81471,1
81478,1
81486,1
81495,0
81503,-2
81511,-2
81519,-1
81526,-1
81534,0
81543,0
81551,2
81559,7
81566,14
81574,11
81583,-6
81591,-18
81599,-13
81606,-1
81614,2
81623,1
81631,1
81639,1
81647,0
81654,1
81662,1
81671,1
81679,1
81687,2
81694,2
81702,2
81711,2
81719,3
81727,4
81735,6
81742,7
81751,9
81759,10
81767,10
81775,11
81782,11
81790,11
81799,9
81807,7
81815,4
81822,0
81830,-3
81839,-5
81847,-6
81855,-6
81863,-6
81870,-6
81879,-6
81887,-6
81895,-6
81903,-6
81910,-6
81918,-6
81927,-5
81935,-4
81943,-4
81951,-3
81958,-3
81967,-3
81975,-2
81983,-2
81991,-2
81998,-2
82007,-2
82015,-2
82023,-2
82031,-1
82038,-1
82046,-2
82055,-1
82063,-1
82071,-1
82079,-1
82086,1
82095,1
82103,0
82111,-1
82119,-2
82126,-2
82135,-1
82143,-1
82151,-1
82159,0
82167,3
82174,11
82183,17
82191,7
82199,-11
82207,-17
82214,-8
82223,-1
82231,0
82239,0
82247,1
82254,0
82263,0
82271,0
82279,0
82287,0
82295,1
82302,1
82311,1
82319,2
82327,2
82335,3
82342,4
82351,6
82359,7
82367,8
82375,9
82383,10
82391,10
82399,10
82407,10
82415,8
82423,4
82430,1
82439,-2
82447,-5
82455,-6
82463,-7
82470,-7
82479,-8
82487,-8
82495,-7
82503,-7
82511,-7
82519,-7
82527,-7
82535,-6
82543,-6
82551,-5
82558,-5
82567,-4
82575,-4
82583,-4
82591,-3
82599,-3
82607,-3
82615,-3
82623,-3
82631,-3
82639,-3
82647,-2
82655,-2
82663,-3
82671,-2
82679,-2
82686,-1
82695,-1
82703,-1
82711,0
82719,0
82727,0
82735,0
82743,-2
82751,-3
82759,-2
82767,-2
82775,-1
82783,-1
82791,0
82799,5
82807,14
82816,16
82823,2
82831,-14
82839,-15
82847,-4
82855,1
82863,0
82871,1
82879,1
82887,0
82895,0
82903,0
82911,0
82919,1
82927,1
82935,1
82944,2
82951,2
82959,2
82967,3
82975,5
82983,6
82991,7
82999,9
83007,10
83015,11
83023,11
83032,11
83039,9
83047,7
83055,4
83063,0
83072,-2
83079,-4
83087,-6
83095,-6
83103,-7
83111,-7
83119,-7
83127,-7
83135,-7
83143,-6
83151,-6
83160,-6
83167,-6
83175,-5
83183,-5
83191,-5
83200,-4
83207,-4
83215,-3
83223,-3
83231,-2
83239,-3
83248,-3
83255,-3
83263,-3
83271,-2
83279,-2
83288,-2
83295,-2
83303,-2
83311,-2
83319,-2
83328,-1
83335,-1
83343,-1
83351,1
83359,1
83367,0
83376,-1
83383,-2
83391,-3
83399,-2
83407,-2
83416,-2
83423,-1
83431,1
83439,6
83447,15
83456,17
83464,1
83471,-16
83479,-15
83487,-4
83495,1
83504,-1
83511,0
83519,1
83527,0
83535,1
83544,1
83551,1
83559,1
83567,1
83575,1
83584,1
83592,2
83599,3
83607,4
83615,5
83623,6
83632,8
83639,10
83647,11
83655,12
83663,11
83672,11
83680,9
83687,7
83695,4
83703,0
83712,-2
83720,-4
83727,-6
83735,-6
83743,-6
83751,-7
83760,-6
83767,-7
83775,-7
83783,-7
83791,-6
83800,-6
83808,-6
83815,-5
83823,-5
83831,-5
83840,-4
83848,-3
83855,-3
83863,-3
83871,-2
83879,-3
83888,-3
83896,-2
83903,-2
83911,-2
83919,-2
83928,-2
83936,-2
83943,-2
83951,-2
83959,-1
83968,-1
83976,-1
83983,0
83991,1
83999,1
84007,0
84016,-1
84024,-2
84031,-2
84039,-2
84047,-1
84056,-2
84064,-1
84071,1
84079,6
84087,14
84096,17
84104,2
84112,-16
84119,-16
84127,-4
84135,1
84144,0
84152,1
84159,1
84167,0
84175,1
84184,2
84192,1
84199,2
84207,2
84215,2
84224,1
84232,3
84240,4
84247,4
84255,5
84263,6
84272,7
84280,9
84287,10
84295,11
84303,11
84312,12
84320,11
84328,8
84335,5
84343,0
84352,-3
84360,-4
84368,-6
84375,-6
84383,-7
84391,-7
84400,-6
84408,-7
84415,-7
84423,-7
84431,-6
84440,-6
84448,-6
84456,-6
84463,-5
84471,-4
84480,-3
84488,-3
84496,-3
84503,-3
84511,-2
84519,-2
84528,-3
84536,-3
84544,-3
84551,-2
84559,-2
84568,-2
84576,-2
84584,-2
84591,-1
84599,-1
84608,0
84616,-1
84624,-1
84631,1
84639,1
84647,-1
84656,-2
84664,-2
84672,-2
84679,-1
84687,-1
84696,-1
84704,-1
84712,2
84719,9
84727,17
84736,13
84744,-6
84752,-18
84760,-11
84767,-1
84775,1
84784,0
84792,1
84800,1
84807,1
84815,1
84824,1
84832,1
84840,2
84847,2
84855,2
84864,2
84872,4
84880,5
84888,5
84895,6
84903,8
84912,10
84920,11
84928,11
84935,12
84943,12
84952,11
84960,10
84968,8
84976,4
84983,0
84992,-3
85000,-4
85008,-5
85016,-5
85023,-6
85031,-6
85040,-6
85048,-6
85056,-6
85063,-5
85071,-5
85080,-5
85088,-4
85096,-4
85104,-4
85111,-4
85120,-3
85128,-3
85136,-2
85144,-2
85151,-1
85159,-2
85168,-2
85176,-2
85184,-2
85192,-1
85199,-1
85208,-1
85216,0
85224,0
85232,-1
85239,0
85248,0
85256,1
85264,0
85272,0
85279,-2
85287,-2
85296,-2
85304,-2
85312,-2
85320,0
85327,3
85336,10
85344,17
85352,12
85360,-8
85367,-20
85376,-12
85384,-1
85392,2
85400,1
85408,1
85415,1
85424,1
85432,2
85440,2
85448,1
85455,2
85464,3
85472,2
85480,3
85488,4
85495,5
85504,5
85512,6
85520,7
85528,9
85536,10
85543,10
85552,11
85560,12
85568,11
85576,10
85583,8
85592,4
85600,1
85608,-2
85616,-4
85624,-6
85632,-6
85640,-6
85648,-6
85656,-6
85664,-7
85671,-7
85680,-6
85688,-6
85696,-6
85704,-5
85711,-4
85720,-4
85728,-3
85736,-2
85744,-3
85752,-3
85760,-2
85768,-2
85776,-2
85784,-3
85792,-2
85799,-1
85808,-1
85816,-2
85824,-3
85832,-2
85840,-1
85848,-2
85856,-1
85864,2
85872,2
85880,1
85888,-1
85896,-1
85904,-2
85912,-1
85920,-1
85927,-1
85936,0
85944,3
85952,10
85960,17
85968,12
85976,-6
85984,-17
85992,-10
86000,0
86008,1
86016,0
86024,1
86032,0
86040,0
86048,1
86056,1
86064,0
86072,1
86080,2
86088,2
86096,2
86104,3
86112,4
86120,5
86128,6
86136,7
86144,8
86152,10
86160,11
86168,11
86176,11
86184,10
86192,9
86200,7
86208,3
86216,-1
86224,-3
86232,-5
86240,-5
86248,-6
86256,-6
86264,-7
86273,-6
86280,-6
86288,-6
86296,-6
86304,-5
86312,-5
86320,-5
86328,-4
86336,-4
86344,-4
86352,-3
86360,-2
86368,-2
86376,-2
86384,-2
86392,-2
86401,-2
86408,-2
86416,-2
86424,-2
86432,-2
86440,-2
86448,-2
86456,-1
86464,-1
86472,0
86480,1
86489,1
86496,0
86504,-1
86512,-2
86520,-1
86529,-1
86536,-2
86544,-2
86552,0
86560,3
86568,12
86576,18
86584,8
86592,-12
86600,-18
86608,-8
86617,0
86624,0
86632,0
86640,1
86648,0
86657,0
86664,1
86672,1
86680,2
86688,2
86696,2
86705,1
86712,2
86720,3
86728,4
86736,5
86745,7
86752,8
86760,9
86768,10
86776,11
86785,11
86792,11
86800,10
86808,8
86816,5
86824,1
86833,-2
86840,-4
86848,-5
86856,-6
86864,-7
86873,-7
86880,-7
86888,-7
86896,-7
86904,-7
86913,-6
86921,-6
86928,-6
86936,-5
86944,-5
86952,-5
86961,-4
86968,-4
86976,-3
86984,-3
86992,-3
87001,-3
87008,-3
87016,-2
87024,-2
87032,-2
87041,-2
87049,-2
87056,-2
87064,-2
87072,-1
87080,-1
87089,0
87096,1
87104,1
87112,0
87120,0
87129,-2
87137,-3
87144,-2
87152,-2
87160,-1
87169,-1
87177,1
87184,6
87192,16
87200,17
87208,1
87217,-16
87224,-15
87232,-4
87240,1
87248,1
87257,1
87265,1
87272,0
87280,1
87288,1
87297,1
87305,1
87312,2
87320,2
87328,2
87336,3
87345,3
87353,4
87360,6
87368,7
87376,8
87385,9
87393,10
87400,11
87408,11
87416,11
87425,10
87433,8
87440,5
87448,1
87456,-2
87464,-4
87473,-5
87481,-6
87488,-7
87496,-6
87504,-6
87513,-7
87521,-7
87528,-7
87536,-6
87544,-5
87553,-5
87561,-4
87569,-4
87576,-3
87584,-3
87592,-3
87601,-2
87609,-2
87616,-2
87624,-2
87632,-2
87641,-2
87649,-2
87656,-1
87664,-1
87672,-2
87681,-1
87689,-1
87697,-1
87704,-1
87712,0
87720,1
87729,1
87737,1
87744,0
87752,-2
87760,-2
87769,-2
87777,-1
87785,-1
87792,0
87800,2
87809,8
87817,17
87825,14
87832,-6
87840,-19
87848,-13
87857,-2
87865,1
87872,1
87880,1
87888,1
87897,1
87905,2
87913,1
87920,1
87928,1
87937,2
87945,2
87953,2
87960,3
87968,3
87976,5
87985,7
87993,8
88001,9
88008,10
88016,11
88025,11
88033,11
88041,11
88048,10
88056,8
88065,4
88073,0
88081,-2
88088,-4
88096,-5
88104,-6
88113,-6
88121,-6
88129,-6
88136,-6
88144,-6
88153,-6
88161,-5
88169,-4
88176,-3
88184,-3
88193,-4
88201,-3
88209,-2
88217,-2
88224,-1
88232,-2
88241,-1
88249,-1
88257,-1
88264,-1
88272,-1
88281,-1
88289,-1
88297,-1
88304,-1
88312,-1
88321,0
88329,0
88337,-1
88345,-1
88352,-1
88360,-2
88369,-2
88377,-1
88385,-1
88392,-1
88400,0
88409,5
88417,14
88425,16
88433,1
88440,-16
88449,-16
88457,-4
88465,3
88473,1
88480,1
88488,1
88497,0
88505,0
88513,0
88520,0
88528,0
88537,2
88545,3
88553,3
88561,3
88568,4
88577,5
88585,6
88593,7
88601,9
88608,10
88616,11
88625,11
88633,11
88641,12
88649,10
88656,8
88665,5
88673,1
88681,-2
88689,-4
88696,-5
88705,-5
88713,-6
88721,-6
88729,-7
88736,-6
88744,-6
88753,-6
88761,-6
88769,-6
88777,-6
88784,-5
88793,-4
88801,-4
88809,-4
88817,-3
88824,-3
88833,-3
88841,-2
88849,-2
88857,-2
88865,-2
88872,-2
88881,-2
88889,-2
88897,-2
88905,-2
88912,-2
88921,-1
88929,-1
88937,0
88945,0
88952,0
88961,0
88969,-1
88977,-2
88985,-3
88993,-2
89000,-2
89009,-2
89017,-1
89025,2
89033,9
89040,17
89049,11
89057,-7
89065,-18
89073,-10
89081,0
89089,1
89097,0
89105,1
89113,0
89121,1
89128,2
89137,2
89145,2
89153,2
89161,2
89168,1
89177,2
89185,3
89193,3
89201,4
89209,6
89217,7
89225,9
89233,10
89241,11
89249,11
89256,11
89265,10
89273,9
89281,6
89289,3
89297,0
89305,-3
89313,-5
89321,-6
89329,-6
89337,-7
89345,-7
89353,-7
89361,-7
89369,-8
89377,-8
89384,-7
89393,-6
89401,-5
89409,-5
89417,-5
89425,-4
89433,-4
89441,-3
89449,-3
89457,-3
89465,-3
89473,-3
89481,-3
89489,-3
89497,-2
89505,-2
89513,-2
89521,-2
89529,-3
89537,-3
89545,-2
89553,-1
89561,-1
89569,-1
89577,0
89585,1
89593,0
89601,-2
89609,-3
89617,-3
89625,-2
89633,-2
89641,-1
89649,0
89657,2
89665,10
89673,18
89681,10
89689,-10
89697,-17
89705,-8
89713,0
89721,1
89730,0
89737,1
89745,0
89753,0
89761,0
89769,0
89777,1
89785,1
89793,1
89801,1
89809,2
89817,2
89825,3
89833,4
89841,6
89849,8
89858,9
89865,10
89873,11
89881,12
89889,11
89897,10
89905,9
89913,5
89921,1
89929,-2
89937,-3
89946,-5
89953,-6
89961,-7
89969,-7
89977,-7
89986,-7
89993,-7
90001,-7
90009,-7
90017,-6
90025,-6
90033,-6
90041,-5
90049,-5
90057,-5
90065,-4
90074,-4
90081,-3
90089,-3
90097,-3
90105,-3
90114,-3
90121,-3
90129,-2
90137,-2
90145,-2
90153,-2
90162,-2
90169,-2
90177,-2
90185,-1
90193,-1
90202,-1
90209,0
90217,0
90225,1
90233,0
90242,-1
90249,-2
90257,-2
90265,-1
90273,-1
90281,-1
90290,-1
90297,1
90305,6
90313,16
90321,16
90330,-1
90337,-17
90345,-14
90353,-4
90361,0
90370,0
90378,0
90385,-1
90393,-1
90401,0
90409,1
90418,1
90425,1
90433,1
90441,1
90449,2
90458,2
90465,3
90473,4
90481,5
90489,6
90498,8
90506,9
90513,10
90521,11
90529,12
90537,11
90546,10
90553,8
90561,4
90569,0
90577,-3
90586,-5
90594,-6
90601,-6
90609,-6
90617,-7
90626,-7
90634,-7
90641,-7
90649,-7
90657,-6
90665,-6
90674,-6
90681,-5
90689,-5
90697,-5
90705,-4
90714,-4
90722,-3
90729,-3
90737,-3
90745,-3
90754,-3
90762,-3
90769,-2
90777,-2
90785,-2
90793,-2
90802,-1
90810,-1
90817,-2
90825,-1
90833,-1
90842,-1
90850,0
90857,0
90865,0
90873,-1
90882,1
90890,1
90897,-1
90905,-2
90913,-3
90921,-3
90930,-2
90938,-2
90945,-1
90953,0
90961,2
90970,8
90978,17
90985,14
90993,-4
91001,-17
91010,-12
91018,-1
91026,1
91033,0
91041,1
91049,1
91058,1
91066,1
91073,1
91081,1
91089,2
91098,3
91106,2
91113,3
91121,4
91129,4
91138,5
91146,7
91154,8
91161,10
91169,11
91177,11
91186,12
91194,13
91201,13
91209,11
91217,9
91226,6
91234,2
91242,-1
91249,-3
91257,-4
91266,-5
91274,-6
91282,-7
91289,-6
91297,-6
91305,-6
91314,-6
91322,-5
91329,-5
91337,-4
91345,-4
91354,-3
91362,-3
91370,-2
91377,-2
91385,-2
91394,-1
91402,-1
91410,-2
91417,-2
91425,-1
91433,-1
91442,-1
91450,-1
91458,-1
91465,-1
91473,-1
91482,-1
91490,-1
91498,-1
91505,-1
91513,0
91522,1
91530,1
91538,0
91545,-1
91553,-2
91561,-2
91570,-1
91578,-1
91586,-1
91593,-1
91601,1
91610,5
91618,13
91626,15
91633,1
91641,-16
91650,-17
91658,-5
91666,1
91674,1
91681,1
91689,1
91698,0
91706,0
91714,0
91721,1
91729,1
91738,2
91746,2
91754,2
91761,2
91769,2
91778,3
91786,5
91794,6
91802,7
91809,9
91817,10
91826,11
91834,11
91842,11
91849,11
91857,8
91866,5
91874,1
91882,-2
91890,-5
91897,-6
91906,-6
91914,-7
91922,-8
91930,-8
91937,-8
91945,-8
91954,-8
91962,-7
91970,-6
91977,-6
91985,-6
91994,-6
92002,-5
92010,-5
92018,-5
92025,-4
92034,-4
92042,-4
92050,-4
92058,-3
92065,-3
92073,-3
92082,-3
92090,-3
92098,-2
92106,-2
92113,-3
92122,-2
92130,-2
92138,-2
92146,-2
92153,-1
92162,-1
92170,-1
92178,0
92186,0
92193,-1
92201,-2
92210,-3
92218,-2
92226,-2
92234,-2
92241,-1
92250,0
92258,3
92266,10
92274,16
92281,8
92290,-11
92298,-18
92306,-8
92314,0
92322,0
92329,0
92338,0
92346,0
92354,0
92362,0
92369,0
92378,0
92386,1
92394,0
92402,0
92409,1
92418,1
92426,2
92434,3
92442,5
92450,7
92457,8
92466,9
92474,10
92482,11
92490,11
92497,10
92506,9
92514,6
92522,2
92530,-2
92538,-4
92546,-5
92554,-6
92562,-7
92570,-7
92578,-7
92585,-7
92594,-7
92602,-6
92610,-6
92618,-7
92625,-6
92634,-6
92642,-5
92650,-5
92658,-5
92666,-4
92674,-4
92682,-3
92690,-3
92698,-2
92706,-2
92713,-3
92722,-3
92730,-2
92738,-2
92746,-2
92754,-2
92762,-1
92770,-1
92778,-1
92786,-1
92794,-1
92802,-1
92810,-1
92818,-1
92826,-1
92834,-1
92841,-1
92850,0
92858,1
92866,0
92874,-1
92882,-2
92890,-2
92898,-2
92906,-2
92914,-2
92922,-2
92930,0
92938,5
92946,13
92954,17
92962,5
92971,-12
92978,-16
92986,-6
92994,0
93002,0
93010,0
93018,0
93026,0
93034,0
93042,1
93050,1
93058,1
93066,1
93074,1
93082,1
93090,2
93099,2
93106,3
93114,4
93122,6
93130,8
93138,9
93146,10
93154,11
93162,12
93170,12
93178,11
93187,9
93194,6
93202,2
93210,-1
93218,-3
93227,-4
93234,-5
93242,-6
93250,-6
93258,-6
93266,-6
93274,-7
93282,-7
93290,-6
93298,-6
93306,-5
93315,-5
93322,-4
93330,-4
93338,-4
93346,-3
93355,-3
93362,-3
93370,-2
93378,-2
93386,-1
93394,-1
93403,-1
93410,-1
93418,-1
93426,-2
93434,-2
93443,-1
93450,-1
93458,-1
93466,-1
93474,-1
93483,-1
93490,-1
93498,-1
93506,-1
93514,-1
93522,1
93531,1
93538,0
93546,-1
93554,-2
93562,-2
93571,-1
93578,-1
93586,-1
93594,-1
93602,1
93611,6
93619,15
93626,16
93634,0
93642,-16
93650,-14
93659,-3
93666,1
93674,1
93682,1
93690,1
93699,0
93706,1
93714,1
93722,1
93730,2
93739,2
93747,2
93754,2
93762,3
93770,3
93778,4
93787,5
93794,6
93802,8
93810,10
93818,11
93827,12
93834,12
93842,13
93850,12
93858,9
93867,6
93875,2
93882,-1
93890,-3
93898,-5
93906,-5
93915,-6
93922,-6
93930,-6
93938,-6
93946,-6
93955,-6
93963,-6
93970,-5
93978,-5
93986,-5
93995,-5
94003,-4
94010,-3
94018,-3
94026,-2
94034,-2
94043,-1
94051,-1
94058,-1
94066,-2
94074,-2
94083,-2
94091,-2
94098,-2
94106,-2
94114,-2
94123,-1
94131,-1
94138,-2
94146,-2
94154,0
94162,0
94171,-1
94179,-2
94186,0
94194,1
94202,1
94211,1
94219,-1
94226,-2
94234,-2
94242,-1
94251,-2
94259,-2
94266,-1
94274,1
94282,8
94290,18
94299,16
94307,-3
94314,-18
94322,-13
94330,-2
94339,2
94347,2
94354,2
94362,2
94370,2
94379,2
94387,1
94395,1
94402,2
94410,3
94418,2
94427,2
94435,2
94442,3
94450,6
94458,8
94467,8
94475,9
94482,10
94490,12
94498,13
94507,13
94515,12
94523,11
94530,10
94538,7
94546,3
94555,-1
94563,-4
94570,-4
94578,-5
94586,-5
94595,-6
94603,-5
94611,-5
94618,-5
94626,-5
94635,-5
94643,-5
94651,-5
94658,-4
94666,-2
94674,-2
94683,-3
94691,-2
94698,-2
94706,-1
94714,-1
94723,-1
94731,-1
94739,-2
94746,-1
94754,0
94763,0
94771,0
94779,-1
94786,-1
94794,-1
94802,-1
94811,-2
94819,-1
94827,0
94834,-1
94842,-1
94851,0
94859,0
94867,-1
94874,-2
94882,-2
94891,-1
94899,-1
94907,-1
94914,-1
94922,0
94930,3
94939,10
94947,17
94955,10
94962,-9
94970,-19
94979,-11
94987,0
94995,1
95002,1
95010,2
95019,2
95027,1
95035,2
95043,2
95050,2
95058,2
95067,3
95075,3
95083,4
95090,4
95098,4
95107,6
95115,7
95123,8
95130,9
95138,11
95147,12
95155,13
95163,13
95171,13
95178,11
95186,9
95195,6
95203,2
95211,-1
95218,-3
95226,-4
95235,-5
95243,-5
95251,-5
95259,-5
95266,-5
95275,-5
95283,-5
95291,-4
95299,-4
95306,-4
95314,-3
95323,-3
95331,-2
95339,-2
95346,-1
95354,-1
95363,-1
95371,-1
95379,-1
95387,-1
95394,-1
95403,-1
95411,-1
95419,-1
95427,-1
95434,0
95442,-1
95451,-1
95459,-1
95467,0
95475,-1
95482,0
95491,1
95499,0
95507,0
95515,-1
95522,-3
95531,-3
95539,-2
95547,-1
95555,-2
95562,0
95570,2
95579,8
95587,16
95595,12
95603,-7
95610,-19
95619,-13
95627,-2
95635,1
95643,0
95650,0
95659,-1
95667,-1
95675,1
95683,1
95691,1
95698,2
95707,2
95715,2
95723,2
95731,2
95738,3
95747,4
95755,5
95763,6
95771,8
95778,9
95787,10
95795,11
95803,11
95811,11
95819,9
95826,7
95835,3
95843,-1
95851,-3
95859,-5
95866,-6
95875,-7
95883,-7
95891,-7
95899,-7
95907,-7
95915,-7
95923,-7
95931,-7
95939,-7
95947,-6
95954,-5
95963,-5
95971,-5
95979,-4
95987,-3
95994,-3
96003,-3
96011,-3
96019,-3
96027,-3
96035,-2
96043,-2
96051,-2
96059,-2
96067,-1
96075,-1
96082,-2
96091,-1
96099,-1
96107,-1
96115,-1
96123,0
96131,-1
96139,-1
96147,0
96155,1
96163,0
96171,-1
96179,-2
96187,-2
96195,-1
96203,-1
96210,-2
96219,-1
96227,1
96235,6
96243,15
96251,16
96259,1
96267,-14
96275,-14
96283,-4
96291,1
96299,1
96307,1
96315,1
96323,1
96331,1
96339,0
96347,1
96355,2
96363,2
96371,2
96379,3
96387,3
96395,3
96403,4
96411,5
96419,6
96427,8
96435,10
96443,10
96451,11
96459,12
96467,12
96475,11
96483,10
96491,6
96499,1
96507,-1
96515,-3
96523,-5
96531,-5
96539,-6
96547,-7
96556,-6
96563,-6
96571,-5
96579,-6
96587,-5
96595,-5
96603,-5
96611,-4
96619,-4
96627,-3
96635,-2
96643,-2
96651,-3
96659,-2
96667,-1
96675,-2
96684,-2
96691,-1
96699,-1
96707,-1
96715,-1
96723,-1
96731,-1
96739,-1
96747,0
96755,-1
96763,-1
96772,-1
96779,-1
96787,-1
96795,-1
96803,-1
96812,0
96819,1
96827,1
96835,0
96843,-2
96851,-2
96859,-2
96867,-1
96875,-2
96883,-1
96891,0
96900,3
96907,10
96915,18
96923,10
96931,-9
96940,-16
96947,-8
96955,1
96963,1
96971,0
96979,1
96988,0
96995,0
97003,1
97011,1
97019,1
97028,2
97035,3
97043,2
97051,2
97059,3
97068,4
97075,5
97083,6
97091,8
97099,9
97107,11
97116,12
97123,12
97131,12
97139,12
97147,10
97156,7
97163,3
97171,0
97179,-3
97187,-5
97196,-5
97204,-6
97211,-6
97219,-6
97227,-5
97235,-5
97244,-6
97251,-6
97259,-6
97267,-6
97275,-5
97284,-5
97291,-4
97299,-4
97307,-3
97315,-2
97324,-2
97332,-2
97339,-2
97347,-2
97355,-1
97363,-1
97372,-1
97379,-1
97387,-1
97395,-1
97403,-1
97412,-1
97420,-1
97427,0
97435,0
97443,0
97452,-1
97460,0
97467,0
97475,0
97483,0
97491,1
97500,0
97507,-1
97515,-2
97523,-2
97531,-1
97540,-2
97548,-1
97555,0
97563,3
97571,10
97580,18
97588,14
97595,-4
97603,-16
97611,-10
97619,0
97628,2
97636,1
97643,1
97651,1
97659,1
97668,2
97676,2
97683,1
97691,2
97699,3
97708,3
97716,3
97723,3
97731,4
97739,6
97747,6
97756,8
97764,9
97771,10
97779,11
97787,13
97796,13
97804,12
97811,11
97819,9
97827,5
97836,2
97844,-1
97852,-3
97859,-4
97867,-5
97875,-5
97884,-5
97892,-5
97899,-6
97907,-6
97915,-5
97924,-5
97932,-4
97939,-4
97947,-3
97955,-3
97964,-3
97972,-2
97980,-2
97987,-1
97995,0
98003,-1
98012,-1
98020,-1
98027,-1
98035,-1
98043,-1
98052,-1
98060,-1
98068,-1
98075,-1
98083,-1
98092,-1
98100,-1
98108,0
98115,1
98123,1
98131,0
98140,-1
98148,-2
98155,-1
98163,-1
98171,-1
98180,-1
98188,1
98196,3
98203,11
98211,16
98220,5
98228,-14
98236,-18
98243,-7
98251,0
98259,1
98268,1
98276,1
98284,0
98291,1
98299,2
98308,1
98316,2
98324,2
98331,2
98339,2
98348,3
98356,3
98364,4
98371,5
98379,6
98387,7
98396,9
98404,10
98412,11
98419,11
98427,12
98436,11
98444,9
98452,7
98459,4
98467,0
98476,-3
98484,-4
98492,-5
98500,-6
98507,-6
98515,-6
98524,-7
98532,-7
98540,-6
98547,-6
98555,-6
98564,-5
98572,-4
98580,-4
98587,-4
98595,-3
98604,-3
98612,-3
98620,-2
98628,-2
98635,-2
98643,-2
98652,-2
98660,-2
98668,-2
98675,-1
98683,-1
98692,-2
98700,-2
98708,-1
98716,-1
98723,-1
98732,0
98740,1
98748,1
98756,0
98763,-2
98771,-2
98780,-2
98788,-1
98796,-1
98803,-1
98811,0
98820,4
98828,12
98836,17
98844,5
98851,-13
98860,-16
98868,-6
98876,0
98884,0
98891,0
98899,1
98908,0
98916,0
98924,1
98932,1
98939,1
98948,1
98956,1
98964,1
98972,1
98979,1
98988,2
98996,4
99004,5
99012,7
99019,8
99027,9
99036,10
99044,10
99052,10
99060,9
99067,7
99076,4
99084,0
99092,-3
99100,-5
99107,-7
99116,-7
99124,-7
99132,-7
99140,-8
99148,-8
99155,-7
99164,-7
99172,-7
99180,-7
99188,-6
99195,-6
99204,-6
99212,-5
99220,-5
99228,-5
99235,-4
99244,-4
99252,-3
99260,-3
99268,-4
99276,-3
99283,-3
99292,-2
99300,-3
99308,-3
99316,-2
99323,-2
99332,-2
99340,-2
99348,-1
99356,-1
99364,-1
99372,0
99380,0
99388,0
99396,0
99404,-1
99411,-2
99420,-3
99428,-2
99436,-2
99444,-2
99451,-1
99460,0
99468,4
99476,13
99484,17
99492,4
99500,-13
99508,-16
99516,-6
99524,1
99532,1
99539,0
99548,1
99556,0
99564,0
99572,1
99580,1
99588,1
99596,1
99604,1
99612,1
99620,2
99628,2
99636,3
99644,4
99652,6
99660,7
99667,8
99676,10
99684,11
99692,11
99700,11
99708,10
99716,8
99724,5
99732,2
99740,-1
99748,-4
99756,-5
99764,-5
99772,-5
99780,-6
99788,-6
99796,-6
99804,-7
99812,-6
99820,-6
99828,-5
99836,-5
99844,-5
99852,-4
99860,-4
99868,-4
99876,-3
99884,-3
99892,-2
99900,-1
99908,-2
99916,-2
99924,-2
99932,-1
99940,-2
99948,-2
99956,-1
99964,-1
99972,-1
99980,-1
99988,-1
99996,0
100004,0
100013,0
100020,-1
100028,0
100036,1
100044,0
100052,-1
100060,-2
100068,-2
100076,-2
100084,-2
100092,-1
100100,0
100108,1
100116,4
100124,13
100132,18
100141,6
100148,-13
100156,-16
100164,-5
100172,1
100180,1
100188,1
100196,2
100204,1
100212,1
100220,2
100229,2
100236,2
100244,2
100252,3
100260,2
100269,3
100276,4
100284,5
100292,6
100300,8
100308,9
100316,10
100324,11
100332,11
100340,12
100348,12
100357,12
100364,9
100372,7
100380,3
100388,0
100397,-2
100404,-4
100412,-5
100420,-5
100428,-5
100436,-6
100445,-6
100452,-6
100460,-5
100468,-5
100476,-4
100485,-4
100492,-3
100500,-3
100508,-3
100516,-2
100525,-2
100532,-2
100540,-1
100548,-1
100556,-1
100564,-1
100573,-1
100580,-1
100588,-1
100596,-1
100604,-1
100613,-1
100620,-1
100628,-1
100636,-1
100644,0
100653,0
100661,-1
100668,0
100676,1
100684,0
100692,-1
100701,-1
100708,-2
100716,-2
100724,-2
100732,-1
100741,-1
100748,0
100756,3
100764,10
100772,17
100781,8
100789,-10
100796,-18
100804,-9
100812,0
100820,1
100829,0
100836,0
100844,0
100852,0
100860,1
100869,1
100877,2
100884,2
100892,3
100900,3
100909,3
100917,3
100924,4
100932,5
100940,6
100948,7
100957,8
100964,9
100972,11
100980,11
100988,12
100997,11
101005,9
101012,7
101020,4
101028,0
101037,-3
101045,-5
101052,-6
101060,-6
101068,-6
101076,-6
101085,-7
101093,-7
101100,-6
101108,-6
101116,-6
101125,-6
101133,-5
101140,-5
101148,-5
101156,-4
101165,-4
101173,-3
101180,-3
101188,-2
101196,-2
101204,-2
101213,-1
101221,-2
101228,-2
101236,-2
101244,-2
101253,-2
101261,-1
101268,-1
101276,-2
101284,-1
101293,-1
101301,-1
101309,0
101316,1
101324,1
101332,1
101341,0
101349,-2
101356,-2
101364,-1
101372,-1
101381,0
101389,0
101396,2
101404,8
101412,16
101421,13
101429,-5
101437,-16
101444,-11
101452,-1
101460,1
101469,1
101477,1
101484,1
101492,0
101500,1
101509,1
101517,1
101525,2
101532,2
101540,2
101549,2
101557,3
101565,3
101572,4
101580,5
101588,7
101597,9
101605,10
101612,10
101620,11
101628,12
101637,11
101645,10
101653,8
101660,4
101668,0
101677,-3
101685,-5
101693,-6
101700,-6
101708,-7
101716,-7
101725,-7
101733,-7
101741,-7
101748,-7
101756,-6
101765,-6
101773,-6
101781,-5
101788,-5
101796,-4
101805,-4
101813,-3
101821,-3
101828,-3
101836,-3
101844,-3
101853,-2
101861,-2
101869,-2
101876,-2
101884,-2
101893,-2
101901,-2
101909,-2
101916,-1
101924,-1
101933,0
101941,-1
101949,-1
101957,-1
101964,-1
101972,-1
101981,0
101989,1
101997,0
102004,-1
102012,-1
102021,-2
102029,-2
102037,-1
102044,-1
102052,-1
102061,0
102069,4
102077,12
102085,18
102092,8
102100,-12
102109,-17
102117,-7
102125,0
102132,0
102140,0
102149,1
102157,0
102165,0
102173,1
102180,1
102189,1
102197,1
102205,1
102213,1
102220,2
102228,3
102237,3
102245,4
102253,6
102260,7
102268,8
102277,10
102285,11
102293,12
102301,12
102308,11
102317,10
102325,6
102333,2
102341,-1
102348,-3
102356,-5
102365,-6
102373,-6
102381,-6
102389,-6
102396,-6
102405,-7
102413,-7
102421,-6
102429,-6
102436,-5
102445,-5
102453,-5
102461,-4
102469,-4
102476,-3
102484,-2
102493,-2
102501,-2
102509,-2
102517,-2
102524,-2
102533,-2
102541,-1
102549,-1
102557,-1
102564,-1
102573,-1
102581,-1
102589,-1
102597,-1
102605,-1
102612,-1
102621,-1
102629,-1
102637,-1
102645,-1
102652,-1
102661,0
102669,0
102677,0
102685,-1
102692,-2
102701,-2
102709,-2
102717,-1
102725,-1
102733,-1
102740,1
102749,7
102757,17
102765,16
102773,-1
102780,-16
102789,-14
102797,-3
102805,1
102813,1
102821,1
102829,0
102837,0
102845,1
102853,0
102861,0
102868,0
102877,1
102885,0
102893,0
102901,1
102908,1
102917,2
102925,3
102933,5
102941,7
102949,8
102957,9
102965,9
102973,10
102981,10
102989,8
102996,6
103005,3
103013,-1
103021,-4
103029,-6
103037,-7
103045,-7
103053,-8
103061,-8
103069,-8
103077,-8
103085,-9
103093,-9
103101,-8
103109,-8
103117,-7
103124,-7
103133,-7
103141,-6
103149,-5
103157,-5
103165,-5
103173,-5
103181,-4
103189,-4
103197,-3
103205,-3
103213,-4
103221,-4
103229,-4
103237,-4
103245,-4
103254,-3
103261,-2
103269,-2
103277,-2
103285,-1
103293,-1
103301,-1
103309,-1
103317,-1
103325,-2
103333,-1
103341,1
103349,1
103357,1
103365,0
103373,-2
103382,-2
103389,-2
103397,-1
103405,-1
103413,0
103421,1
103429,6
103437,16
103445,15
103453,-1
103461,-17
103470,-14
103477,-3
103485,1
103493,1
103501,1
103510,1
103517,0
103525,1
103533,1
103541,1
103549,1
103557,2
103565,2
103573,2
103581,3
103589,4
103598,5
103605,7
103613,8
103621,9
103629,10
103638,12
103645,12
103653,12
103661,12
103669,11
103677,9
103686,6
103693,2
103701,-1
103709,-3
103717,-4
103726,-4
103733,-5
103741,-5
103749,-6
103757,-5
103766,-5
103773,-6
103781,-5
103789,-5
103797,-5
103805,-4
103814,-4
103821,-4
103829,-3
103837,-2
103845,-2
103854,-2
103861,-1
103869,-1
103877,-1
103885,-1
103894,-1
103902,-1
103909,-1
103917,-1
103925,-1
103933,-1
103942,-1
103949,-1
103957,0
103965,0
103973,-1
103982,-1
103989,-1
103997,-1
104005,0
104013,1
104022,1
104030,0
104037,-1
104045,-2
104053,-2
104061,-1
104070,-1
104077,-1
104085,0
104093,3
104101,11
104110,18
104118,10
104125,-10
104133,-18
104141,-9
104150,1
104158,2
104165,1
104173,2
104181,1
104189,0
104198,1
104205,2
104213,2
104221,2
104229,2
104238,2
104246,3
104253,3
104261,4
104269,5
104278,7
104286,7
104293,9
104301,10
104309,10
104317,11
104326,12
104334,11
104341,10
104349,8
104357,5
104366,1
104374,-2
104381,-4
104389,-5
104397,-6
104406,-6
104414,-6
104421,-7
104429,-7
104437,-6
104445,-6
104454,-6
104462,-5
104469,-5
104477,-4
104485,-4
104494,-4
104502,-3
104509,-3
104517,-2
104525,-2
104534,-2
104542,-2
104550,-2
104557,-2
104565,-1
104573,-1
104582,-1
104590,-1
104597,-1
104605,-1
104613,-1
104622,-1
104630,-1
104637,0
104645,1
104653,0
104662,0
104670,-1
104678,-2
104685,-3
104693,-2
104701,-1
104710,-1
104718,0
104725,2
104733,7
104741,16
104750,14
104758,-4
104766,-18
104773,-13
104781,-2
104790,1
104798,0
104806,1
104813,1
104821,1
104829,1
104838,1
104846,0
104853,1
104861,2
104869,1
104878,2
104886,3
104894,3
104901,4
104909,5
104918,7
104926,8
104934,9
104941,10
104949,10
104957,11
104966,11
104974,10
104982,8
104989,4
104997,0
105006,-3
105014,-5
105022,-6
105029,-7
105037,-7
105046,-7
105054,-8
105062,-8
105069,-8
105077,-7
105085,-7
105094,-7
105102,-6
105110,-6
105117,-6
105125,-5
105134,-4
105142,-4
105150,-4
105157,-4
105165,-3
105174,-3
105182,-3
105190,-3
105198,-3
105205,-3
105213,-3
105222,-3
105230,-3
105238,-3
105245,-2
105253,-2
105262,-2
105270,-2
105278,-2
105285,-1
105293,0
105302,1
105310,1
105318,0
105326,-1
105333,-2
105341,-2
105350,-1
105358,-2
105366,-1
105373,0
105381,3
105390,10
105398,18
105406,12
105414,-7
105421,-16
105430,-8
105438,0
105446,1
105454,1
105461,1
105469,0
105478,0
105486,1
105494,1
105501,1
105509,2
105518,1
105526,2
105534,3
105542,3
105549,4
105558,5
105566,6
105574,7
105582,9
105589,10
105597,11
105606,12
105614,12
105622,11
105630,10
105637,8
105646,4
105654,0
105662,-3
105670,-4
105677,-5
105686,-6
105694,-6
105702,-6
105710,-7
105717,-7
105725,-6
105734,-7
105742,-6
105750,-6
105758,-5
105765,-5
105774,-5
105782,-4
105790,-4
105798,-3
105805,-2
105814,-2
105822,-2
105830,-2
105838,-2
105846,-2
105853,-2
105862,-1
105870,-2
105878,-2
105886,-1
105893,-1
105902,0
105910,-1
105918,-1
105926,0
105933,0
105942,0
105950,-1
105958,-1
105966,-3
105974,-3
105981,-2
105990,-2
105998,-1
106006,1
106014,5
106021,13
106030,15
106038,2
106046,-15
106054,-16
106062,-4
106070,1
106078,1
106086,1
106094,1
106102,0
106109,1
106118,1
106126,2
106134,2
106142,3
106149,2
106158,1
106166,2
106174,2
106182,3
106190,5
106198,6
106206,8
106214,9
106222,10
106230,11
106237,12
106246,12
106254,11
106262,9
106270,6
106278,2
106286,-1
106294,-3
106302,-4
106310,-5
106318,-6
106326,-6
106334,-6
106342,-6
106350,-7
106358,-7
106365,-6
106374,-5
106382,-5
106390,-5
106398,-4
106406,-3
106414,-3
106422,-3
106430,-3
106438,-2
106446,-2
106454,-2
106462,-1
106470,-2
106478,-2
106486,-1
106494,-1
106502,-2
106510,-1
106518,-1
106526,-1
106534,0
106542,1
106550,1
106558,0
106566,-1
106574,-2
106582,-2
106590,-1
106598,-1
106606,-1
106614,1
106622,4
106630,12
106638,16
106646,5
106654,-13
106662,-17
106670,-7
106678,1
106686,0
106694,0
106702,0
106711,0
106718,0
106726,1
106734,1
106742,1
106750,1
106758,0
106766,1
106774,1
106782,2
106790,2
106798,4
106806,5
106814,6
106822,8
106830,10
106839,10
106846,10
106854,10
106862,10
106870,8
106878,4
106886,0
106894,-4
106902,-5
106910,-7
106918,-7
106927,-8
106934,-7
106942,-8
106950,-7
106958,-8
106967,-8
106974,-8
106982,-7
106990,-7
106998,-7
107006,-6
107014,-6
107022,-5
107030,-5
107038,-5
107046,-4
107055,-4
107062,-4
107070,-4
107078,-3
107086,-3
107095,-3
107102,-3
107110,-3
107118,-3
107126,-3
107134,-2
107143,-2
107150,-2
107158,-2
107166,-1
107174,-1
107183,0
107190,0
107198,0
107206,-1
107214,-2
107223,-2
107230,-2
107238,-2
107246,-1
107254,-1
107262,1
107271,6
107278,15
107286,15
107294,-1
107302,-15
107311,-12
107318,-2
107326,1
107334,1
107342,1
107351,1
107359,0
107366,1
107374,1
107382,1
107390,2
107399,2
107406,2
107414,2
107422,3
107430,3
107439,4
107446,5
107454,6
107462,8
107470,10
107479,11
107487,12
107494,12
107502,12
107510,10
107518,8
107527,4
107534,0
107542,-3
107550,-5
107558,-6
107567,-7
107575,-7
107582,-7
107590,-7
107598,-6
107607,-7
107615,-7
107622,-6
107630,-6
107638,-6
107646,-5
107655,-5
107662,-5
107670,-4
107678,-4
107686,-3
107695,-3
107703,-3
107710,-2
107718,-2
107726,-2
107735,-2
107743,-2
107750,-2
107758,-2
107766,-1
107774,-2
107783,-2
107791,-1
107798,-1
107806,-1
107814,0
107823,1
107831,1
107838,0
107846,-1
107854,-2
107863,-1
107871,0
107878,-1
107886,-1
107894,0
107902,2
107911,8
107919,17
107926,13
107934,-5
107942,-17
107951,-10
107959,-1
107966,1
107974,1
107982,1
107991,0
107999,0
108007,1
108014,1
108022,1
108030,2
108039,2
108047,2
108054,2
108062,3
108070,4
108079,5
108087,7
108094,8
108102,10
108110,11
108119,12
108127,13
108135,13
108142,13
108150,12
108158,8
108167,4
108175,0
108182,-2
108190,-4
108198,-5
108207,-6
108215,-6
108223,-6
108230,-5
108238,-6
108247,-6
108255,-6
108263,-5
108270,-5
108278,-5
108286,-4
108295,-4
108303,-3
108310,-3
108318,-3
108326,-2
108335,-2
108343,-1
108351,-1
108358,-1
108366,-1
108375,-1
108383,-1
108391,-2
108398,-2
108406,-1
108414,-1
108423,-1
108431,-1
108439,-1
108446,-1
108454,-1
108463,0
108471,1
108479,1
108486,1
108494,-1
108503,-2
108511,-2
108519,-2
108526,-2
108534,-1
108542,-1
108551,0
108559,3
108567,12
108574,18
108582,8
108591,-11
108599,-17
108607,-8
108614,0
108622,0
108631,-1
108639,0
108647,0
108655,0
108662,1
108670,1
108679,1
108687,1
108695,1
108702,1
108710,2
108719,2
108727,3
108735,4
108742,6
108750,7
108759,9
108767,11
108775,11
108783,12
108790,13
108798,12
108807,10
108815,7
108823,4
108830,0
108838,-3
108847,-4
108855,-5
108863,-5
108871,-6
108878,-7
108887,-6
108895,-6
108903,-6
108911,-5
108918,-5
108926,-4
108935,-4
108943,-3
108951,-3
108958,-3
108966,-2
108975,-2
108983,-2
108991,-2
108999,-2
109006,-2
109015,-3
109023,-3
109031,-2
109039,-2
109046,-1
109054,-1
109063,-1
109071,0
109079,0
109087,0
109094,0
109103,0
109111,0
109119,-1
109127,-3
109134,-4
109143,-3
109151,-2
109159,-2
109167,-1
109174,0
109182,3
109191,10
109199,15
109207,5
109215,-12
109222,-17
109231,-8
109239,0
109247,1
109255,0
109262,0
109271,0
109279,0
109287,0
109295,0
109303,0
109310,1
109319,1
109327,1
109335,2
109343,3
109350,3
109359,4
109367,5
109375,6
109383,8
109390,9
109399,10
109407,11
109415,12
109423,11
109431,9
109438,6
109447,3
109455,-1
109463,-4
109471,-5
109478,-6
109487,-6
109495,-6
109503,-6
109511,-6
109519,-6
109527,-7
109535,-7
109543,-6
109551,-5
109559,-5
109566,-4
109575,-4
109583,-3
109591,-3
109599,-3
109606,-3
109615,-3
109623,-3
109631,-3
109639,-3
109647,-3
109655,-3
109663,-3
109671,-2
109679,-2
109687,-1
109694,-1
109703,1
109711,1
109719,0
109727,-1
109735,-2
109743,-3
109751,-2
109759,-2
109767,-2
109775,-1
109783,1
109791,8
109799,15
109807,11
109815,-5
109822,-16
109831,-10
109839,-1
109847,1
109855,0
109863,1
109871,1
109879,0
109887,0
109895,0
109903,0
109911,1
109919,1
109927,0
109935,1
109943,1
109952,2
109959,2
109967,4
109975,5
109983,7
109991,9
109999,9
110007,10
110015,11
110023,11
110031,9
110039,6
110047,2
110055,-2
110063,-5
110071,-6
110080,-7
110087,-8
110095,-8
110103,-7
110111,-7
110119,-7
110127,-7
110135,-7
110143,-6
110151,-6
110159,-6
110168,-6
110175,-6
110183,-6
110191,-5
110199,-5
110208,-4
110215,-4
110223,-3
110231,-3
110239,-3
110247,-3
110255,-3
110263,-2
110271,-2
110279,-3
110287,-3
110296,-2
110303,-3
110311,-2
110319,-2
110327,-1
110336,-1
110343,0
110351,0
110359,0
110367,0
110375,-1
110384,-3
110391,-2
110399,-1
110407,-2
110415,-2
110424,0
110431,3
110439,10
110447,17
110455,10
110464,-7
110471,-16
110479,-9
110487,-1
110495,0
110503,0
110512,1
110519,1
110527,0
110535,0
110543,0
110552,1
110559,1
110567,2
110575,2
110583,2
110592,2
110600,3
110607,4
110615,5
110623,6
110631,8
110640,10
110647,11
110655,11
110663,12
110671,12
110680,10
110687,7
110695,3
110703,-1
110711,-3
110720,-5
110728,-6
110735,-7
110743,-6
110751,-6
110759,-7
110768,-7
110775,-7
110783,-6
110791,-6
110799,-6
110808,-5
110816,-6
110823,-6
110831,-4
110839,-4
110848,-4
110856,-4
110863,-3
110871,-2
110879,-2
110887,-2
110896,-2
110903,-2
110911,-2
110919,-2
110927,-2
110936,-2
110944,-2
110951,-1
110959,-1
110967,-1
110976,-1
110984,0
110991,-1
110999,-1
111007,0
111015,0
111024,-1
111032,-1
111039,-2
111047,-2
111055,-2
111064,-1
111072,-2
111079,-1
111087,1
111095,6
111104,15
111112,16
111119,0
111127,-15
111135,-14
111143,-3
111152,1
111160,1
111167,1
111175,1
111183,0
111192,1
111200,1
111207,1
111215,1
111223,2
111232,2
111240,2
111248,3
111255,3
111263,4
111271,5
111280,6
111288,7
111295,8
111303,10
111311,11
111320,11
111328,11
111335,10
111343,8
111351,5
111360,2
111368,-1
111376,-3
111383,-5
111391,-5
111399,-5
111408,-5
111416,-6
111423,-6
111431,-5
111439,-5
111448,-5
111456,-6
111464,-5
111471,-4
111479,-4
111488,-3
111496,-2
111504,-2
111511,-1
111519,-1
111527,-1
111536,-1
111544,-1
111551,-1
111559,-1
111567,-1
111576,-1
111584,-1
111592,-1
111599,-1
111607,-1
111616,0
111624,-1
111632,-1
111639,-1
111647,1
111655,0
111664,-1
111672,-1
111680,-2
111687,-2
111695,-1
111704,-1
111712,-1
111720,0
111727,3
111735,9
111744,15
111752,8
111760,-9
111767,-17
111775,-10
111783,-1
111792,1
111800,1
111808,1
111815,1
111823,1
111832,1
111840,1
111848,1
111855,2
111863,1
111872,2
111880,2
111888,3
111896,3
111903,4
111911,5
111920,6
111928,7
111936,8
111943,9
111951,11
111960,11
111968,11
111976,10
111983,7
111991,4
112000,0
112008,-2
112016,-4
112024,-5
112031,-5
112039,-6
112048,-6
112056,-6
112064,-6
112071,-6
112079,-6
112088,-5
112096,-5
112104,-5
112112,-5
112119,-4
112128,-4
112136,-3
112144,-3
112152,-3
112159,-3
112167,-2
112176,-2
112184,-2
112192,-2
112199,-2
112207,-1
112216,-1
112224,-2
112232,-2
112240,-2
112247,-1
112256,-2
112264,-1
112272,1
112280,0
112287,-1
112295,-1
112304,-2
112312,-2
112320,-2
112328,-2
112335,-1
112344,0
112352,2
112360,8
112368,15
112375,10
112384,-7
112392,-17
112400,-11
112408,-2
112415,1
112423,1
112432,1
112440,0
112448,0
112456,1
112463,1
112472,1
112480,1
112488,1
112496,0
112503,0
112512,1
112520,2
112528,3
112536,4
112544,5
112551,7
112560,8
112568,9
112576,10
112584,10
112591,10
112600,9
112608,6
112616,1
112624,-2
112631,-4
112640,-6
112648,-7
112656,-7
112664,-8
112672,-8
112679,-8
112688,-7
112696,-7
112704,-7
112712,-6
112719,-6
112728,-6
112736,-5
112744,-5
112752,-5
112760,-5
112768,-5
112776,-4
112784,-4
112792,-4
112800,-4
112807,-3
112816,-3
112824,-3
112832,-3
112840,-3
112847,-2
