3001,581245
3002,581245
3004,580323
3006,581326
3008,580826
3009,580644
3011,581548
3013,580502
3015,581605
3017,581086
3019,580926
3021,581848
3023,580914
3025,581954
3027,581418
3030,581296
3032,582173
3034,581218
3036,582313
3038,581695
3040,581669
3042,582589
3044,582697
3046,582056
3049,582033
3051,582947
3053,581962
3055,583113
3057,582477
3059,582426
3062,583333
3064,583477
3066,582867
3068,582747
3070,583717
3073,582762
3075,583848
3078,583235
3080,583197
3082,584098
3084,583110
3086,583588
3088,583585
3091,584514
3093,583523
3095,584669
3097,584040
3099,583923
3101,584897
3104,583935
3106,584431
3108,584311
3110,585223
3112,584279
3115,585441
3117,584748
3120,584759
3122,585614
3124,584616
3126,585830
3128,585096
3130,585943
3133,584956
3135,586151
3137,585463
3139,585466
3141,586200
3143,585294
3146,586414
3148,585820
3150,586489
3152,585550
3154,586716
3156,586057
3159,586239
3162,586788
3164,585828
3166,587020
3168,586290
3170,586854
3172,585990
3175,587246
3177,586524
3179,586946
3181,587071
3183,586302
3185,587442
3188,586788
3190,587179
3192,586498
3194,587755
3196,587074
3198,587616
3201,587343
3204,586780
3206,587973
3208,587278
3210,587882
3212,586926
3214,588232
3217,587547
3219,588235
3221,587725
3223,587238
3225,588502
3227,587842
3230,588597
3232,587487
3234,588786
3236,588085
3238,588937
3240,588232
3243,587752
3246,589060
3248,588380
3250,589255
3252,588407
3254,589400
3256,588687
3259,589650
3261,588705
3263,588344
3265,589684
3267,589033
3269,590018
3272,589037
3274,589987
3276,589296
3278,590211
3280,589162
3282,588802
3286,590083
3288,589332
3290,590263
3292,589077
3294,588588
3296,588903
3298,589727
3301,588358
3303,587784
3305,588855
3307,587809
3309,588440
3311,586943
3314,586227
3316,586074
3318,586634
3320,585006
3322,584148
3324,585088
3328,583953
3330,584501
3332,582878
3334,582090
3336,583010
3338,582411
3340,580878
3343,580127
3345,580996
3347,579966
3349,580610
3351,579094
3353,578395
3356,579380
3358,579102
3360,577687
3362,577110
3364,578162
3366,577231
3369,578063
3372,576719
3374,576192
3376,577322
3378,576447
3380,576096
3382,575747
3385,576875
3387,576089
3389,577048
3391,575793
3393,575550
3395,576690
3398,575924
3400,575828
3402,575616
3404,576740
3406,576108
3408,577195
3411,576065
3414,575968
3416,576961
3418,576383
3420,577526
3422,576452
3424,577222
3427,576746
3429,577879
3431,576759
3433,576976
3435,577551
3437,577093
3440,578347
3442,577461
3444,577912
3446,577514
3448,578766
3450,577698
3453,578018
3456,578348
3458,578055
3460,579288
3462,578148
3464,578747
3466,578512
3469,579728
3471,578632
3473,579040
3475,579025
3477,578841
3479,580077
3482,579004
3484,579330
3486,579194
3488,580466
3490,579295
3492,579955
3495,579614
3497,579514
3500,580819
3502,579696
3504,580305
3506,579865
3508,581207
3511,580110
3513,580798
3515,580334
3517,580286
3519,581570
3521,580485
3524,581257
3526,580796
3528,582122
3530,581020
3532,581791
3534,581259
3537,581265
3539,582587
3542,581456
3544,582322
3546,581678
3548,583030
3550,581919
3553,582732
3555,582100
3557,582051
3559,583363
3561,582243
3563,582976
3566,582327
3568,582304
3570,582443
3572,583207
3574,582483
3576,582466
3579,583729
3581,582604
3584,583307
3586,582591
3588,582527
3590,582621
3592,583378
3595,582622
3597,582619
3599,583813
3601,582583
3603,583339
3605,582570
3608,582470
3610,583668
3612,583253
3614,582473
3616,582375
3618,583585
3621,582332
3623,583077
3625,582309
3628,582302
3630,583458
3632,582961
3635,582158
3637,582124
3639,583301
3641,582004
3643,582786
3645,581997
3647,582077
3650,583142
3652,581894
3654,581867
3656,582021
3658,583050
3660,581922
3663,582697
3665,581998
3667,582151
3670,583042
3672,581950
3674,582040
3677,582310
3679,583081
3681,582024
3683,582926
3685,582130
3687,582603
3689,583155
3692,582144
3694,583063
3696,582865
3698,583238
3700,582361
3702,583298
3705,582584
3707,583185
3709,583464
3712,582578
3714,583613
3716,583522
3719,583642
3721,582876
3723,583923
3725,583184
3727,583939
3729,583927
3731,583218
3734,584196
3736,583544
3738,584170
3740,583495
3742,584572
3744,583862
3747,584746
3749,584468
3751,583852
3753,584923
3756,584244
3758,584775
3761,584197
3763,585246
3765,584622
3767,585636
3769,585131
3771,584614
3773,585659
3776,584972
3778,586022
3780,585012
3782,586037
3784,585373
3786,586453
3789,585873
3791,585342
3793,586458
3795,585736
3798,586864
3800,585783
3803,586817
3805,586216
3807,587257
3809,586537
3811,586041
3813,587121
3815,586452
3818,587519
3820,586838
3822,587405
3824,586772
3826,587932
3828,587169
3831,586655
3833,587763
3835,587038
3837,588206
3840,587463
3842,587997
3845,587355
3847,588502
3849,587758
3851,587349
3853,588384
3855,587677
3857,588796
3860,588067
3862,587562
3864,587911
3866,589101
3868,588291
3870,587812
3873,588907
3875,588196
3877,589362
3879,588525
3881,588102
3884,588431
3887,589553
3889,588834
3891,588342
3893,589329
3895,588635
3897,589766
3899,588986
3902,588574
3904,589580
3906,590000
3908,589232
3910,588904
3912,589763
3915,589067
3917,590220
3919,589485
3921,589265
3923,589966
3926,590486
3929,589753
3931,589645
3933,590182
3935,589584
3937,590785
3939,590009
3941,589994
3944,590365
3946,589865
3948,590325
3950,590387
3952,590560
3954,590116
3957,591397
3959,590656
3961,590714
3963,590850
3965,590430
3968,590979
3971,591187
3973,591081
3975,590754
3977,592060
3979,591290
3981,591574
3983,591337
3986,590981
3988,592259
3990,591676
3992,591178
3994,590821
3996,592031
3999,591120
4001,591342
4003,590575
4005,590199
4007,591283
4009,590354
4013,589353
4015,588823
4017,589780
4019,588643
4021,588636
4023,587469
4026,586890
4028,587792
4030,586518
4032,585299
4034,584740
4036,585685
4038,584430
4041,584584
4043,583216
4045,582697
4047,583665
4049,582440
4051,581366
4055,580895
4057,581795
4059,580733
4061,581009
4063,579755
4065,579404
4068,580525
4070,579504
4072,579804
4074,578433
4076,579559
4078,578583
4080,579063
4083,577882
4085,577748
4087,578901
4089,578046
4091,578596
4093,577396
4097,578732
4099,577941
4101,578527
4103,577467
4105,577439
4107,578732
4110,578020
4112,578611
4114,577647
4116,578940
4118,578200
4120,578849
4122,577873
4125,577913
4127,579279
4129,578541
4131,579261
4133,578341
4135,579661
4139,578925
4141,579616
4143,578708
4145,578780
4147,580162
4149,579419
4152,580125
4154,579230
4156,579273
4158,579921
4160,580597
4162,579655
4164,579818
4167,581119
4169,580367
4171,581140
4173,580143
4175,580403
4177,581457
4180,581577
4183,580582
4185,580893
4187,581822
4189,581230
4191,581930
4194,580931
4196,581348
4198,582081
4200,582271
4202,581343
4204,581828
4206,582356
4209,581849
4211,582630
4213,581691
4215,582296
4217,582696
4219,582292
4222,582156
4225,582792
4227,583072
4229,582763
4231,583571
4233,582659
4236,583392
4238,583482
4240,583211
4242,583113
4244,583919
4246,583852
4248,583642
4251,584512
4253,583526
4255,584351
4257,584216
4259,583977
4261,584862
4264,584721
4267,584381
4269,584182
4271,585033
4273,584002
4275,584919
4278,584511
4280,584278
4282,585141
4284,584998
4286,584453
4288,584279
4290,585107
4293,584087
4295,585009
4297,584380
4299,584130
4301,584998
4303,583926
4306,584166
4308,583948
4311,584719
4313,583726
4315,584617
4317,583924
4320,583779
4322,584550
4324,583424
4326,583677
4328,583448
4330,584278
4332,583156
4335,584189
4337,583433
4339,583218
4341,584032
4343,582978
4345,583974
4348,583093
4350,583897
4353,582815
4355,583807
4357,583094
4359,582925
4362,583730
4364,582682
4366,583740
4368,582852
4370,583692
4372,582678
4374,583769
4377,583033
4379,582977
4381,583796
4383,582727
4385,583812
4387,583137
4390,583857
4392,582851
4395,583974
4397,583293
4399,583222
4401,584079
4404,583079
4406,584172
4408,583455
4410,584289
4412,583282
4414,584383
4417,583769
4419,583805
4421,584537
4423,583539
4425,584746
4427,583999
4429,584125
4432,583839
4434,585004
4436,584300
4439,584570
4441,584983
4443,584128
4446,585343
4448,584719
4450,584976
4452,584490
4454,585690
4456,585047
4459,585463
4461,585562
4463,584844
4465,586097
4467,585375
4469,585852
4471,585846
4474,586443
4476,585770
4478,586313
4481,586131
4483,585473
4485,586750
4488,586073
4490,586734
4492,586370
4494,587146
4496,586447
4498,587101
4501,586648
4503,586113
4505,587383
4507,586732
4509,587511
4511,586883
4513,586425
4516,587075
4518,587903
4520,587117
4523,586678
4525,587982
4527,587329
4530,588230
4532,587342
4534,586990
4536,587588
4538,588561
4540,587581
4543,587232
4545,588551
4547,587862
4549,588828
4551,587795
4553,587434
4555,588795
4558,589091
4560,588001
4562,587697
4564,589025
4567,588392
4569,589403
4572,588246
4574,587911
4576,589290
4578,589667
4580,588511
4582,588176
4585,589515
4587,588815
4589,589905
4591,588792
4593,588410
4595,589749
4597,589072
4600,588994
4602,588708
4604,589998
4606,589382
4609,590413
4611,589268
4614,588924
4616,590318
4618,589605
4620,589552
4622,589263
4624,590610
4627,589871
4629,590990
4631,589824
4633,589560
4635,590918
4637,590191
4639,591326
4642,589842
4644,591182
4646,590508
4648,591595
4651,590414
4653,590064
4656,591360
4658,590615
4660,591655
4662,590124
4664,591286
4666,590423
4669,591400
4671,590034
4673,589666
4675,590705
4677,589757
4679,590496
4681,589007
4684,589307
4686,588282
4688,589015
4690,587391
4692,586935
4695,587377
4698,586340
4700,586990
4702,585412
4704,585260
4706,584300
4708,584977
4711,583361
4713,583104
4715,583233
4717,582252
4719,583066
4721,581467
4723,581260
4726,580475
4728,581258
4730,579792
4732,579810
4734,579688
4737,579063
4740,579996
4742,578529
4744,578636
4746,578536
4748,579017
4750,577671
4753,577998
4755,577722
4757,577369
4759,578424
4761,577136
4763,577557
4766,577230
4768,578090
4770,576831
4772,577390
4774,577037
4776,576857
4779,578030
4782,576884
4784,577468
4786,577070
4788,576907
4790,576993
4792,577714
4795,577259
4797,577220
4799,578487
4801,577329
4803,578105
4805,577516
4808,577542
4810,577779
4812,578536
4814,577869
4816,577923
4818,579231
4820,578154
4824,578925
4826,578343
4828,578354
4830,579625
4832,579393
4834,578733
4837,578761
4839,580112
4841,579004
4843,579818
4845,579146
4847,579183
4850,580485
4852,580220
4854,579535
4856,579556
4858,580856
4860,579769
4862,580602
4866,579945
4868,579946
4870,581243
4872,580138
4874,580372
4876,580310
4879,581650
4881,580534
4883,581416
4885,580699
4887,580762
4889,582005
4892,580949
4894,581167
4896,581208
4898,582540
4900,581419
4902,582368
4904,581641
4908,581752
4910,583027
4912,581912
4914,582793
4916,582159
4918,583422
4921,582281
4923,583142
4925,582449
4927,582566
4929,583697
4931,582577
4934,583380
4936,582787
4938,583849
4940,582680
4942,583552
4944,582789
4946,583048
4950,583865
4952,582814
4954,583603
4956,582821
4958,583738
4960,582682
4963,583481
4965,582749
4967,583134
4969,583555
4971,582531
4973,583324
4976,582577
4978,583245
4980,582327
4982,583111
4984,582350
4986,582863
4988,582950
4992,582084
4994,582949
4996,582132
4998,582713
5000,581787
5002,582728
5005,581900
5007,582556
5009,582368
5011,581545
5013,582496
5015,581731
5018,582457
5020,581353
5022,582275
5024,581516
5026,582322
5028,581924
5030,581237
5033,582258
5036,581487
5038,582386
5040,581880
5042,582203
5044,581511
5047,582477
5049,581902
5051,581314
5053,582314
5055,581577
5057,582564
5060,581930
5062,582381
5064,581686
5066,582703
5068,582091
5070,581569
5073,582612
5075,581854
5078,582968
5080,582249
5082,581777
5084,582149
5086,583182
5089,582530
5091,582014
5093,583061
5095,582351
5097,583482
5099,582822
5102,582344
5104,582687
5106,583861
5108,583103
5110,582651
5112,583692
5114,582977
5117,584175
5120,583430
5122,582966
5124,584008
5126,584532
5128,583773
5131,583298
5133,584327
5135,583670
5137,584821
5139,584062
5141,583636
5144,584658
5146,585176
5148,584465
5150,584005
5152,585068
5154,584371
5157,585523
5159,584781
5161,584375
5164,585418
5166,584651
5168,585150
5170,584725
5173,585714
5175,585028
5177,586157
5179,585493
5181,585076
5183,586038
5186,585361
5188,585792
5190,585444
5192,586321
5194,585666
5196,586831
5199,586026
5201,585848
5203,586524
5206,585864
5208,587127
5210,586216
5212,586724
5215,586200
5217,587439
5219,586679
5221,586617
5223,586971
5225,586426
5228,587644
5230,586967
5232,587155
5234,586668
5236,587927
5238,587200
5241,587364
5243,587328
5245,586919
5248,588198
5250,587464
5252,587429
5254,587132
5257,588454
5259,587693
5261,587986
5263,587664
5265,587384
5267,588669
5270,587928
5272,587863
5274,587595
5276,588893
5278,588138
5280,588497
5283,587937
5285,587769
5287,589071
5289,588366
5292,588878
5294,588021
5296,589401
5299,588620
5301,589119
5303,588391
5305,588257
5307,589651
5309,588939
5312,589515
5314,588514
5316,589941
5318,589153
5320,589778
5322,588930
5325,588867
5327,590209
5329,589486
5331,590067
5334,589157
5336,590467
5338,589727
5341,590342
5343,589392
5345,589306
5347,590633
5349,589897
5351,590495
5354,589471
5356,589378
5358,589762
5360,590229
5362,589130
5364,588872
5367,589995
5369,588942
5371,589312
5373,588022
5376,587628
5378,587453
5380,587708
5383,586282
5385,585785
5387,586656
5389,585377
5391,585539
5393,584039
5396,583531
5398,584316
5400,583210
5402,581736
5404,581175
5406,582082
5409,580810
5411,581030
5413,579555
5415,579084
5417,579927
5420,579094
5422,577677
5425,577336
5427,578259
5429,577150
5431,577482
5433,576168
5435,575920
5438,576890
5440,575812
5442,575023
5444,574894
5446,575873
5448,574856
5451,575446
5453,574212
5455,574296
5457,575207
5459,574370
5462,573829
5464,573974
5467,574731
5469,574058
5471,574721
5473,573696
5475,574064
5477,574639
5480,574096
5482,574762
5484,574226
5486,574616
5488,574180
5490,574880
5493,573917
5495,574522
5497,574808
5499,574419
5501,575219
5504,574924
5506,575078
5509,574757
5511,575545
5513,574523
5515,575309
5517,575406
5519,575057
5522,575913
5524,575012
5526,575667
5528,575413
5530,576251
5532,575370
5535,576227
5537,576037
5539,575839
5541,576628
5543,575673
5545,576314
5549,576134
5551,576975
5553,576037
5555,576955
5557,576534
5559,576407
5561,577245
5564,576268
5566,577290
5568,576671
5570,577573
5572,576637
5574,577604
5577,577053
5579,576956
5581,577832
5583,576977
5585,578048
5587,577337
5591,578250
5593,577290
5595,578380
5597,577840
5599,577699
5601,578643
5603,577671
5606,578796
5608,578114
5610,578960
5612,578087
5614,579141
5616,578497
5619,578435
5621,579333
5623,578317
5625,579434
5627,578774
5629,579593
5633,578584
5635,579683
5637,579002
5639,578873
5641,579733
5643,578746
5645,579747
5648,579020
5650,578933
5652,578730
5654,579768
5656,579044
5658,578887
5661,579694
5663,578676
5665,579679
5667,578934
5669,578755
5671,578511
5675,579519
5677,578804
5679,578601
5681,579310
5683,578237
5685,579183
5687,578413
5690,578270
5692,578956
5694,578969
5696,578091
5698,578006
5700,578612
5703,577580
5705,578590
5707,577822
5709,577831
5711,578306
5713,578340
5716,577561
5719,577690
5721,578063
5723,577053
5725,578168
5727,577435
5729,577700
5732,577815
5734,576972
5736,577355
5738,577710
5740,577710
5742,576888
5745,578064
5747,577361
5749,577849
5751,577658
5753,576951
5755,577407
5758,577971
5761,577665
5763,577088
5765,578316
5767,577614
5769,578241
5771,577847
5774,577248
5776,578492
5778,578558
5780,577980
5782,577418
5784,578720
5787,578053
5789,578865
5791,578157
5793,577700
5795,578989
5797,579223
5800,578424
5803,577978
5805,579288
5807,578640
5809,579538
5811,578642
5813,578267
5816,579639
5818,579005
5820,579048
5822,578665
5824,579971
5826,579308
5829,580324
5831,579278
5833,578954
5835,580319
5837,579686
5839,579660
5842,579316
5844,580633
5847,579988
5849,581063
5851,579943
5853,579637
5855,581008
5858,580356
5860,581362
5862,579949
5864,581331
5866,580673
5868,581767
5871,580633
5873,580315
5875,581657
5877,581042
5879,582099
5881,580637
5884,582038
5886,581401
5889,582437
5891,581253
5893,580963
5895,582333
5898,581647
5900,582710
5902,581615
5904,582626
5906,581980
5908,583017
5910,581918
5913,581585
5915,582941
5917,582225
5919,583315
5921,582138
5923,583155
5926,582486
5928,583529
5931,582349
5933,582141
5935,583447
5937,582781
5940,583864
5942,582674
5944,582418
5946,582964
5948,584066
5950,582895
5952,582650
5955,583851
5957,583163
5959,584293
5961,583096
5963,582941
5965,584024
5968,584504
5970,583309
5972,583355
5975,584136
5977,583581
5979,584739
5982,583575
5984,583668
5986,584316
5988,584915
5990,583749
5992,583965
5994,584459
5997,584045
5999,585196
6001,584055
6003,584306
6005,584659
6007,584297
6010,584300
6012,584616
6014,584868
6017,584601
6019,585835
6021,584674
6024,585109
6026,585125
6028,584931
6030,584978
6032,585444
6034,585343
6036,585088
6039,586316
6041,585145
6043,585642
6045,585395
6047,585119
6049,586280
6052,585484
6054,584975
6056,584661
6059,585608
6061,584203
6063,584553
6066,583774
6068,583259
6070,584156
6072,582813
6074,581823
6076,581302
6078,582064
6081,580400
6083,580586
6085,579453
6087,578981
6089,579706
6091,578043
6094,577191
6096,576648
6098,577412
6100,575809
6103,576034
6105,574981
6108,574522
6110,575298
6112,573817
6114,573114
6116,572739
6118,573601
6120,572127
6123,572518
6125,571577
6127,571238
6129,572192
6131,570817
6133,571349
6136,570234
6138,571249
6140,569935
6142,570541
6145,569688
6147,569582
6150,570755
6152,569475
6154,570173
6156,569283
6158,570412
6160,569247
6162,569950
6165,569226
6167,569216
6169,570428
6171,569222
6173,570097
6175,569409
6178,570614
6180,569501
6182,570320
6184,569554
6187,569662
6189,570913
6192,569785
6194,570555
6196,569917
6198,571248
6200,570165
6202,570965
6204,570309
6207,570400
6209,571590
6211,570490
6213,571341
6215,570700
6217,570957
6220,570896
6222,571822
6224,571172
6226,571533
6228,572370
6231,571416
6234,572303
6236,571694
6238,572026
6240,571783
6242,572725
6244,572057
6246,572607
6249,573083
6251,572231
6253,573127
6255,572489
6257,573101
6259,573419
6262,573596
6264,572943
6266,573636
6268,573922
6270,573107
6273,574097
6276,573482
6278,574162
6280,574301
6282,574603
6284,573997
6286,574795
6289,574727
6291,574113
6293,575144
6295,574525
6297,575371
6299,575179
6301,574531
6304,574910
6306,575836
6308,575504
6310,574898
6312,575949
6315,575219
6318,576220
6320,575753
6322,575106
6324,575394
6326,576414
6328,575796
6331,575218
6333,576215
6335,575519
6337,576494
6339,575839
6341,575230
6343,576187
6346,576474
6348,575690
6350,575092
6352,575999
6354,575233
6356,576198
6360,575425
6362,574846
6364,575810
6366,575962
6368,575113
6370,574519
6373,575413
6375,574618
6377,575609
6379,574741
6381,574170
6383,575067
6385,574260
6388,574409
6390,573812
6392,574737
6394,573976
6396,574951
6398,574103
6402,573516
6404,574475
6406,573648
6408,573856
6410,573289
6412,574224
6415,573506
6417,574562
6419,573721
6421,573204
6423,574123
6425,573411
6427,574443
6430,573152
6432,574052
6434,573463
6436,574545
6438,573773
6440,573237
6444,574232
6446,573477
6448,574614
6450,573414
6452,574385
6454,573669
6457,574821
6459,574067
6461,573706
6463,574645
6465,573949
6467,575059
6469,574323
6472,574855
6474,574193
6476,575343
6478,574639
6480,574416
6482,575086
6486,574548
6488,575717
6490,574979
6492,575352
6494,574870
6496,576120
6499,575376
6501,575387
6503,575646
6505,575215
6507,576483
6509,575780
6511,575866
6514,575570
6516,576903
6518,576121
6520,576385
6522,576343
6524,576025
6528,577295
6530,576590
6532,576819
6534,576701
6536,577728
6538,577016
6541,577329
6543,577033
6545,576818
6547,578168
6549,577430
6551,577791
6553,577386
6556,578577
6558,577805
6560,578273
6562,577724
6564,577595
6566,578961
6569,578235
6572,578674
6574,578022
6576,577919
6578,578589
6580,579078
6583,578380
6585,578272
6587,579653
6589,578948
6591,579524
6593,578740
6595,578728
6598,579264
6600,579876
6602,579040
6604,578975
6606,580289
6608,579561
6611,580190
6614,579293
6616,579256
6618,580590
6620,580531
6622,579637
6625,579575
6627,580909
6629,580162
6631,580776
6633,579866
6635,579815
6637,581136
6640,581093
6642,580170
6644,580064
6646,581428
6648,580709
6650,581360
6653,580410
6656,580410
6658,581715
6660,580996
6662,580744
6664,580735
6667,582050
6669,581321
6671,582046
6673,581026
6675,581018
6677,582433
6680,581671
6682,581321
6684,581427
6686,582716
6688,581988
6690,582640
6692,581657
6695,581677
6697,582977
6700,582292
6702,582930
6704,581946
6706,583209
6709,582368
6711,582994
6713,581914
6715,581910
6717,582961
6719,582030
6722,582450
6724,581065
6726,581809
6728,580774
6730,581040
6732,579617
6734,579482
6737,579926
6739,578808
6742,578982
6744,577473
6746,577531
6748,576371
6751,576535
6753,575074
6755,574965
6757,575008
6759,574031
6761,574262
6764,572759
6766,572788
6768,571803
6770,572091
6772,570653
6774,570852
6776,570638
6779,569822
6781,570228
6784,568897
6786,569172
6788,568276
6790,568715
6793,567488
6795,567945
6797,567679
6799,567043
6801,567597
6803,566437
6806,566981
6808,566239
6810,566902
6812,565772
6814,566462
6816,566092
6818,565755
6821,566444
6823,565385
6825,566251
6828,565775
6830,566287
6832,565349
6835,566234
6837,565750
6839,565640
6841,566426
6843,565448
6845,566446
6848,565923
6850,566676
6852,565734
6854,566825
6856,566250
6858,566161
6860,567098
6863,566213
6865,567201
6867,566719
6870,566637
6872,566633
6874,567698
6877,567147
6879,567081
6881,568021
6883,567110
6885,568174
6887,567604
6890,567554
6892,567545
6894,568669
6896,568093
6898,568040
6900,568923
6902,568088
6905,569190
6907,568622
6909,568583
6912,569445
6914,569651
6916,569064
6919,569046
6921,569947
6923,569085
6925,570200
6927,569593
6929,569557
6932,570489
6934,570765
6936,570169
6938,570153
6940,571023
6942,570166
6944,571281
6947,570743
6949,570729
6951,571648
6953,570679
6956,571229
6958,571309
6961,572174
6963,571305
6965,572460
6967,571783
6969,571851
6971,572699
6974,571705
6976,572162
6978,572215
6980,572928
6982,571987
6984,573133
6986,572483
6989,572640
6991,573092
6993,572192
6995,573327
6998,572865
7000,573131
7003,572182
7005,573372
7007,572605
7009,572887
7011,572907
7013,572141
7016,573221
7018,572817
7020,572723
7022,571886
7024,572961
7026,572229
7029,572638
7031,572390
7033,571615
7035,572672
7037,571950
7040,572038
7042,571240
7045,572401
7047,571676
7049,572199
7051,571657
7053,570989
7055,572135
7058,571376
7060,571282
7062,570737
7064,571909
7066,571136
7068,571866
7071,571108
7073,570555
7075,571754
7077,571060
7079,571815
7081,570460
7084,571670
7087,570984
7089,571859
7091,570898
7093,570476
7095,571753
7097,571071
7100,571942
7102,570607
7104,571873
7106,571263
7108,572119
7110,571110
7113,570751
7115,572078
7117,571420
7119,572390
7121,571359
7123,572354
7126,571721
7129,572769
7131,571605
7133,571334
7135,572654
7137,572018
7139,573029
7142,571975
7144,571681
7146,572430
7148,573396
7150,572312
7152,572073
7155,573395
7157,572759
7159,573816
7161,572746
7163,572419
7165,573200
7168,574181
7171,573102
7173,572853
7175,574162
7177,573618
7179,574648
7181,573540
7184,573278
7186,574658
7188,575088
7190,574012
7192,573752
7194,575060
7197,574462
7199,575538
7201,574441
7203,574166
7205,575499
7207,575920
7209,574857
7213,574604
7215,575932
7217,575308
7219,576396
7221,575265
7223,575119
7226,576334
7228,575682
7230,575686
7232,575540
7234,576712
7236,576095
7239,577179
7241,576116
7243,576060
7245,577062
7247,576479
7249,576510
7251,576546
7255,577358
7257,576851
7259,577971
7261,576843
7263,576991
7265,577641
7268,577194
7270,578341
7272,577514
7274,577870
7276,577499
7278,578614
7281,577539
7283,577798
7285,578117
7287,577826
7289,578969
7291,578217
7293,578386
7297,578039
7299,579276
7301,578171
7303,578610
7305,578604
7307,578374
7310,579567
7312,578480
7314,578825
7316,578645
7318,579862
7320,578749
7323,579295
7325,579129
7327,578981
7329,580254
7331,579123
7333,579430
7335,579312
7339,580545
7341,579446
7343,580085
7345,579692
7347,579586
7349,580859
7352,579849
7354,580470
7356,579993
7358,581265
7360,580204
7362,580885
7365,580375
7367,580360
7369,581615
7371,580469
7373,581276
7375,580654
7377,581940
7380,580762
7383,581459
7385,580831
7387,580763
7389,581886
7391,580685
7394,581360
7396,580546
7398,581245
7400,579812
7402,580295
7404,579284
7407,578806
7409,579710
7411,578081
7413,578338
7425,574673
7425,574673
7426,574673
7428,574143
7430,574772
7432,573029
7434,573293
7435,572088
7437,571559
7439,572226
7441,570547
7443,570856
7445,569601
7447,569123
7449,569839
7451,568283
7453,568659
7455,567552
7457,567062
7459,567871
7461,566347
7463,566757
7465,565721
7468,565390
7470,566216
7472,564847
7474,565332
7476,564361
7478,564171
7480,564997
7482,564241
7484,563370
7486,563286
7488,564213
7491,562874
7493,563491
7495,562714
7497,562809
7499,563648
7501,563174
7504,562436
7506,562663
7508,563326
7511,562261
7513,563051
7515,562394
7517,562719
7520,563325
7522,562334
7524,562535
7526,563003
7528,563396
7530,562576
7533,563477
7535,562830
7537,563394
7539,563698
7541,562972
7543,563205
7546,563874
7548,564029
7550,563341
7553,564279
7555,563697
7557,564459
7559,564447
7562,563763
7564,564807
7566,564994
7568,564889
7570,564300
7572,565306
7575,564664
7577,565534
7579,565304
7581,564709
7583,565773
7585,566050
7588,565715
7590,565221
7592,566229
7595,565597
7597,566614
7599,566160
7601,565644
7604,566742
7606,566118
7608,566638
7610,566193
7612,567252
7614,566655
7617,567749
7619,567195
7621,566826
7623,567853
7625,567254
7627,567766
7630,567340
7632,568424
7634,567879
7636,568951
7639,568377
7641,567928
7643,568986
7646,568429
7648,569509
7650,568420
7652,569409
7654,568870
7656,569966
7659,569276
7661,568846
7663,569871
7665,569180
7667,570224
7669,569053
7672,570010
7674,569291
7676,570323
7678,569620
7681,569158
7683,570097
7685,569367
7688,570503
7690,569624
7692,569981
7694,569252
7696,570297
7698,569487
7701,568929
7703,569861
7705,569056
7707,570020
7709,569207
7711,569532
7714,568769
7716,569728
7718,568864
7720,568364
7723,569233
7725,568426
7727,569435
7730,568575
7732,568123
7734,568147
7736,569139
7738,568307
7740,567901
7743,568694
7745,567896
7747,568950
7749,568085
7751,567739
7753,568414
7756,568763
7758,567994
7760,567750
7762,568252
7764,567659
7767,568746
7769,567965
7772,567876
7774,568154
7776,568853
7778,567997
7780,568021
7782,568242
7785,567823
7787,568963
7789,568179
7791,568295
7793,568339
7795,567943
7798,568471
7800,568620
7802,568595
7804,568269
7806,569504
7809,568809
7812,568969
7814,568865
7816,568575
7818,569089
7820,569470
7822,569127
7824,568907
7827,570270
7829,569539
7831,569935
7833,569484
7835,569370
7837,570638
7840,570391
7842,569868
7844,569780
7846,571126
7848,570394
7851,570903
7854,570217
7856,570202
7858,571508
7860,571460
7862,570745
7864,570649
7866,572001
7869,571318
7871,571906
7873,571085
7875,571133
7877,572499
7879,571816
7882,571595
7884,571621
7886,573023
7888,572297
7890,572927
7892,572037
7896,572124
7898,573459
7900,572767
7902,572561
7904,572586
7906,573950
7908,573257
7911,573869
7913,573011
7915,573000
7917,574400
7919,573736
7921,574368
7924,573423
7926,574789
7928,574105
7930,574826
7932,573873
7934,573897
7938,575189
7940,574503
7942,575191
7944,574253
7946,575649
7948,574913
7950,575575
7953,574616
7955,574714
7957,575986
7959,575306
7961,575979
7963,575007
7966,576320
7968,575663
7970,576314
7972,575352
7974,575410
7976,576726
7980,576056
7982,576727
7984,575766
7986,577098
7988,576356
7990,576972
7992,576090
7995,576185
7997,577380
7999,576637
8001,577356
8003,576373
8005,576595
8008,576992
8010,577699
8012,576727
8014,577054
8016,577984
8018,577338
8022,578078
8024,577154
8026,577536
8028,577736
8030,578461
8032,577574
8034,578094
8037,578642
8039,578098
8041,578868
8043,577963
8045,578570
8047,578906
8050,579209
8052,578293
8054,578798
8056,579004
8058,578557
8060,579228
8064,578181
8066,578737
8068,578635
8070,578600
8072,577305
8074,577748
8077,577360
8079,576666
8081,577022
8083,575627
8085,575966
8087,575267
8089,574443
8092,573209
8094,573521
8096,572699
8098,571912
8100,572115
8102,570570
8105,570941
8108,569958
8110,569301
8112,568070
8114,568512
8116,567558
8118,566932
8121,567300
8123,565909
8125,566461
8127,565437
8129,564838
8131,565289
8134,564568
8136,563612
8138,563167
8140,563736
8142,562465
8144,563151
8147,562247
8150,561852
8152,562503
8154,562135
8156,561314
8158,560992
8161,561689
8163,560575
8165,561580
8167,560770
8169,560541
8171,561301
8173,560243
8176,560547
8178,560376
8180,561154
8182,560175
8184,561206
8186,560557
8189,560483
8192,561310
8194,560296
8196,560730
8198,560666
8200,561523
8203,560590
8205,561726
8207,561077
8209,561024
8211,561995
8213,561060
8215,562132
8218,561573
8220,562509
8222,561561
8224,562726
8226,562124
8228,562133
8231,563058
8233,562164
8236,563274
8238,562765
8240,563635
8242,562736
8245,563877
8247,563311
8249,563388
8251,564149
8253,563312
8255,564506
8257,563924
8260,564719
8262,563935
8264,565117
8266,564558
8268,564799
8270,565306
8273,564533
8275,565760
8278,565187
8280,565902
8282,565204
8284,566466
8287,565894
8289,566331
8291,566567
8293,565952
8295,567227
8297,566691
8299,567213
8302,566641
8304,567902
8306,567377
8308,567961
8310,567863
8312,567357
8315,568668
8317,568037
8320,568621
8322,568372
8324,569142
8326,568507
8329,569187
8331,568766
8333,568178
8335,569525
8337,568869
8339,569550
8341,568939
8344,569723
8346,568992
8348,569707
8350,569055
8352,568496
8354,569707
8357,568979
8359,569742
8361,568816
8364,568323
8366,568779
8368,569552
8371,568513
8373,568045
8375,569246
8377,568413
8379,569182
8381,568051
8383,567646
8386,568063
8388,568868
8390,567743
8392,567261
8394,568425
8396,567635
8399,568441
8401,567313
8403,566819
8406,567984
8408,568080
8410,566932
8413,566543
8415,567756
8417,566999
8419,567880
8421,566734
8423,566355
8425,567511
8428,567694
8430,566594
8432,566193
8434,567415
8436,566718
8438,567674
8441,566585
8443,566207
8445,567462
8448,566795
8450,566623
8452,566301
8455,567648
8457,566961
8459,567966
8461,566801
8463,566505
8465,567801
8467,567186
8470,567108
8472,566835
8474,568127
8476,567495
8478,568503
8480,567444
8483,567177
8485,568466
8487,567912
8489,568927
8492,567554
8494,568877
8497,568225
8499,569311
8501,568233
8503,568090
8505,569355
8507,568729
8509,569811
8512,568578
8514,569760
8516,569216
8518,570305
8520,569249
8522,569225
8525,570223
8527,569674
8529,570781
8531,569762
8534,570692
8536,570195
8539,571298
8541,570236
8543,570377
8545,571022
8547,570628
8549,571743
8552,570715
8554,571459
8556,571094
8558,572267
8560,571188
8562,571535
8564,571908
8567,571584
8569,572794
8571,571732
8573,572090
8576,572041
8578,573227
8581,572202
8583,572655
8585,572709
8587,572532
8589,573737
8591,572634
8594,573219
8596,572961
8598,574157
8600,573112
8602,573713
8604,573511
8606,573368
8609,574549
8611,573502
8613,574174
8615,573875
8617,574974
8620,573969
8623,574642
8625,574218
8627,574244
8629,575452
8631,574413
8633,575191
8636,574642
8638,575838
8640,574786
8642,575626
8644,575044
8646,575034
8648,576261
8651,575231
8653,576062
8655,575471
8657,575413
8659,575706
8662,576452
8665,575910
8667,575879
8669,577160
8671,576157
8673,576975
8675,576384
8678,576434
8680,576649
8682,577413
8684,576825
8686,576866
8688,578068
8690,576962
8693,577767
8695,577159
8697,577139
8699,578307
8701,577878
8704,577145
8707,576991
8709,578029
8711,576731
8713,577307
8715,576355
8717,576013
8720,576791
8722,575707
8724,574614
8726,574084
8728,574791
8730,573153
8732,573449
8735,572229
8737,571638
8739,572256
8741,570613
8743,569581
8745,569027
8749,569607
8751,567949
8753,568187
8755,567036
8757,566613
8759,567157
8762,565539
8764,564684
8766,564295
8768,564872
8770,563332
8772,563698
8774,562687
8777,562470
8779,562901
8781,561551
8783,562024
8785,561019
8787,561427
8791,560112
8793,560744
8795,559866
8797,560031
8799,560279
8801,559168
8804,559868
8806,559423
8808,559568
8810,558602
8812,559353
8814,558620
8816,559060
8819,559165
8821,558271
8823,559049
8825,558413
8827,559045
8829,558255
8833,559189
8835,558549
8837,559281
8839,559158
8841,558535
8843,559448
8846,558822
8848,559432
8850,558856
8852,559824
8854,559215
8856,560111
8858,559874
8861,559255
8863,560325
8865,559719
8867,560663
8869,559849
8871,560917
8875,560319
8877,561334
8879,560872
8881,560457
8883,561545
8885,560953
8888,561998
8890,561111
8892,562111
8894,561529
8896,562649
8898,562132
8900,561705
8903,562847
8905,562326
8907,563376
8909,562823
8911,563469
8913,562949
8916,564056
8919,563504
8921,563164
8923,564226
8925,563735
8927,564828
8930,564227
8932,563959
8934,564544
8936,565699
8938,565139
8940,564732
8943,565883
8945,565383
8947,566499
8949,565879
8951,565498
8953,566061
8955,567195
8958,566504
8961,566141
8963,567246
8965,566736
8967,567786
8969,567120
8972,566708
8974,567734
8976,568178
8978,567464
8980,567090
8982,568042
8985,567373
8987,568365
8989,567598
8991,567166
8993,568105
8995,568444
8997,567698
9000,567199
9003,567999
9005,567266
9007,568240
9009,567444
9011,567000
9014,567788
9016,567040
9018,567138
9020,566714
9022,567477
9024,566738
9027,567709
9029,566807
9031,566468
9033,566991
9035,566391
9037,566448
9039,566238
9042,566573
9044,566055
9047,567044
9049,566230
9051,566107
9053,566312
9056,565737
9058,566843
9060,565990
9062,566099
9064,565616
9066,566722
9069,565881
9071,565965
9073,565932
9075,565572
9077,566640
9079,566051
9081,565885
9084,565609
9086,566777
9089,566025
9091,566291
9093,566042
9095,565746
9098,566978
9100,566270
9102,566231
9104,566067
9106,567276
9108,566532
9111,566913
9113,566452
9115,566302
9117,567571
9119,566913
9121,566796
9123,566698
9126,568014
9128,567265
9131,567786
9133,567147
9135,567174
9137,568500
9140,567780
9142,568327
9144,567622
9146,568961
9148,568269
9150,568860
9153,568071
9155,568107
9157,569420
9159,568744
9161,569388
9163,568618
9165,569975
9168,569251
9170,569938
9172,569110
9175,569119
9177,570487
9179,569802
9182,570555
9184,569659
9186,571138
9188,570414
9190,571028
9192,570186
9195,570234
9197,571639
9199,570930
9201,571612
9203,570682
9205,572076
9207,571481
9210,572145
9212,571241
9214,571283
9217,572619
9219,571996
9221,572552
9224,571718
9226,571779
9228,572402
9230,573062
9232,572203
9234,572319
9237,573626
9239,572937
9241,573539
9243,572693
9245,572759
9247,573310
9249,574068
9252,573119
9254,573282
9256,574480
9259,573825
9261,574523
9263,573569
9266,573659
9268,574879
9270,574874
9272,573986
9274,574147
9276,575347
9279,574648
9281,575382
9283,574362
9285,574636
9287,575726
9289,575725
9292,574819
9294,575177
9296,576039
9298,575435
9300,576175
9303,575250
9305,575742
9308,576425
9310,575772
9312,575692
9314,576276
9316,576724
9318,576247
9321,577021
9323,576115
9325,576786
9327,577108
9329,576683
9331,576590
9334,577286
9336,577467
9338,577139
9340,577932
9342,577022
9345,577724
9347,577760
9350,577408
9352,578206
9354,577901
9356,577706
9358,577250
9360,577912
9363,576716
9365,577248
9367,576761
9369,576171
9371,576596
9373,575666
9376,574854
9378,574061
9380,574319
9382,572809
9384,573183
9387,572091
9389,571334
9392,571500
9394,569997
9396,569171
9398,568412
9400,568580
9402,567027
9405,567449
9407,566284
9409,565514
9411,565782
9413,564292
9415,563665
9418,562953
9420,563254
9422,561868
9424,562431
9426,561342
9428,560772
9431,561153
9434,559805
9436,560464
9438,558954
9440,559462
9442,558206
9444,558961
9447,558021
9449,557678
9451,558235
9453,557060
9455,557952
9457,556742
9460,557391
9462,556327
9464,557271
9466,556422
9468,556255
9470,556947
9473,555954
9476,556910
9478,556169
9480,556805
9482,555834
9484,556934
9486,556267
9489,556130
9491,556939
9493,556004
9495,557050
9497,556466
9499,557229
9502,556260
9504,557391
9506,556828
9508,556779
9510,557593
9512,556736
9515,557904
9518,557281
9520,557348
9522,557320
9524,558394
9526,557875
9528,557901
9531,558695
9533,557873
9535,559038
9537,558479
9539,558612
9541,559242
9544,559632
9546,559027
9548,559318
9550,559805
9552,559101
9554,560292
9556,559681
9560,560055
9562,560312
9564,560898
9566,560283
9568,560789
9570,560914
9573,560254
9575,561535
9577,561026
9579,561536
9581,561532
9583,561003
9586,561707
9588,562281
9590,562198
9592,561712
9594,562995
9596,562500
9598,563150
9602,562869
9604,562428
9606,563183
9608,563900
9610,563458
9612,563057
9615,564363
9617,563840
9619,564502
9621,564009
9623,563557
9625,564842
9628,565010
9630,564335
9632,563926
9634,565167
9636,564587
9638,565322
9640,564517
9644,564161
9646,565339
9648,565500
9650,564530
9652,564116
9654,565317
9657,564598
9659,565427
9661,564386
9663,563955
9665,565157
9667,564488
9670,564116
9672,563724
9674,564889
9676,564107
9678,564933
9680,563855
9683,563423
9686,564609
9688,563865
9690,563524
9692,563096
9694,564315
9696,563533
9699,564372
9701,563251
9703,562854
9705,564087
9707,563318
9709,564182
9712,562613
9714,563870
9716,563150
9718,564088
9720,562903
9722,562574
9725,563763
9728,563038
9730,563971
9732,562540
9734,563786
9736,563062
9738,563979
9741,562886
9743,562599
9745,563862
9747,563239
9749,564191
9751,563094
9754,564075
9756,563462
9758,564432
9760,563313
9762,563141
9764,564448
9767,563773
9769,564776
9772,563683
9774,564735
9776,564145
9778,565111
9780,564078
9783,563960
9785,565142
9787,564603
9789,565583
9791,564522
9793,564457
9796,564979
9798,566044
9800,564975
9802,565000
9804,565902
9806,565447
9809,566486
9811,565491
9814,565625
9816,565980
9818,567011
9820,566008
9822,566260
9825,566853
9827,566506
9829,567635
9831,566614
9833,566848
9835,567313
9838,568154
9840,567137
9842,567551
9844,567865
9846,567675
9848,568710
9851,567718
9853,568172
9856,568344
9858,569283
9860,568306
9862,568776
9864,568795
9867,568639
9869,569797
9871,568807
9873,569362
9875,569242
9877,569129
9880,569266
9882,569898
9884,569706
9886,569589
9888,570761
9890,569806
9893,570515
9895,570145
9897,570087
9900,570297
9902,570965
9904,570556
9906,570563
9909,571732
9911,570719
9913,571425
9915,571000
9917,570974
9919,572181
9922,571854
9924,571401
9926,571376
9928,572537
9930,571538
9932,572270
9935,571765
9937,571793
9939,572987
9942,572759
9944,572226
9946,572185
9948,573352
9951,572325
9953,573112
9955,572606
9957,572592
9959,573838
9961,572786
9964,572992
9966,573006
9968,574265
9970,573292
9972,574063
9974,573515
9977,573501
9979,574792
9981,573746
9984,574018
9986,574056
9988,575252
9990,574247
9993,575108
9995,574526
9997,574523
9999,575699
10001,574638
10004,574763
10006,574736
10008,575876
10011,574724
10013,575399
10015,574580
10018,575334
10020,573980
10022,574481
10025,573412
10028,573091
10030,572295
10032,572577
10035,571406
10037,570935
10039,571417
10042,569946
10044,568684
10046,568289
10049,568558
10051,566911
10053,565829
10056,565508
10058,565688
10060,564126
10063,564310
10065,563117
10067,562940
10071,561446
10073,561733
10075,560662
10078,560601
10080,559191
10082,559574
10085,558560
10087,558628
10089,558518
10092,557807
10094,556871
10096,557082
10099,556893
10101,555856
10103,555603
10106,555982
10108,555762
10110,554860
10114,555491
10116,554764
10118,554999
10120,554209
10123,554971
10125,554300
10127,554950
10130,553917
10132,554765
10134,554114
10137,554856
10139,554447
10141,554812
10144,554184
10146,555043
10148,554584
10151,554097
10153,554432
10156,555354
10159,554907
10161,554472
10163,555507
10166,554946
10168,555433
10170,554969
10173,556007
10175,555486
10177,556547
10180,555584
10182,556677
10184,556155
10187,557187
10189,556584
10191,557249
10194,556778
10196,557812
10199,557194
10202,556871
10204,557452
10206,558514
10208,557952
10211,557564
10213,558638
10215,558153
10218,558616
10220,558268
10222,559386
10225,558899
10227,559984
10229,559018
10232,560190
10234,559652
10236,560811
10240,560235
10242,560983
10244,560500
10247,561652
10249,561050
10251,560744
10254,561782
10256,562411
10258,561805
10261,561481
10263,562535
10265,562011
10268,562484
10270,562125
10272,563127
10275,562560
10277,563721
10279,562628
10283,563569
10285,562980
10287,564037
10290,563278
10292,563814
10294,563193
10296,564184
10299,563364
10301,563039
10303,563749
10306,564087
10308,563258
10310,563040
10313,563498
10315,562902
10317,562968
10320,562748
10322,563094
10324,562454
10328,563508
10330,562482
10332,562579
10335,562060
10337,563029
10339,562186
10342,562143
10344,561653
10346,562603
10349,561753
10351,561709
10353,561582
10356,562210
10358,561366
10360,561467
10363,561177
10365,560823
10368,561095
10371,561238
10373,560832
10375,560581
10378,561729
10380,561152
10382,560686
10384,560490
10387,561644
10389,560870
10391,560653
10394,560529
10396,561711
10398,560972
10401,561362
10403,560737
10405,561858
10408,561096
10411,561698
10413,560950
10416,560924
10418,561401
10420,561947
10423,561219
10425,561240
10427,562514
10430,562367
10432,561566
10434,561636
10437,562872
10439,562142
10441,561929
10444,562046
10446,563371
10448,562670
10451,563268
10454,562449
10456,563834
10459,563134
10461,563752
10463,562951
10466,563034
10468,563704
10470,564355
10472,563504
10475,563585
10477,564962
10479,564945
10482,564108
10484,564169
10486,565464
10489,564776
10491,564666
10493,564740
10497,566043
10499,565391
10501,566069
10504,565241
10506,566619
10508,566000
10511,566693
10513,565818
10515,565917
10518,566532
10520,567220
10522,566309
10525,566425
10527,567738
10529,567790
10532,566855
10534,567009
10536,568211
10540,567540
10542,568229
10544,567512
10547,568711
10549,568024
10551,568728
10554,567854
10556,569219
10558,568502
10560,569268
10563,568381
10565,568625
10567,568993
10570,569672
10572,568784
10574,569147
10577,569969
10579,570105
10582,569195
10585,569679
10587,570348
10589,569846
10592,570549
10594,570211
10596,570674
10599,570250
10601,570967
10603,570109
10606,571082
10608,570679
10610,571505
10613,570614
10615,571316
10617,571134
10620,571936
10622,571093
10625,571873
10628,571883
10630,572404
10632,571461
10635,572331
10637,572183
10639,571915
10642,572641
10644,572440
10646,572056
10648,571658
10651,572279
10653,571142
10655,571214
10658,570658
10660,571083
10662,569718
10665,570240
10668,568718
10670,568959
10673,567515
10675,567969
10677,566840
10680,566292
10682,564764
10684,565240
10687,564094
10689,563290
10691,563534
10694,562421
10696,561257
10698,560537
10701,560791
10703,559332
10705,558747
10708,558033
10711,558306
10713,556940
10716,557512
10718,555850
10720,556183
10723,554883
10725,555574
10727,554552
10729,554483
10732,553214
10734,553947
10736,553078
10739,552664
10741,553237
10743,552863
10746,552020
10748,551705
10750,552358
10754,551311
10756,551464
10758,551213
10761,551861
10763,550893
10765,551846
10768,550975
10770,551757
10772,550773
10775,551802
10777,551127
10779,551862
10782,550991
10784,552098
10786,551480
10789,551413
10791,552241
10793,552470
10797,551926
10799,551895
10801,552750
10804,551877
10806,552490
10808,552578
10811,553333
10813,552471
10815,553659
10817,553309
10820,553892
10822,553158
10824,554375
10827,553850
10829,554070
10831,553848
10834,555133
10836,554542
10839,554936
10842,555221
10844,555856
10846,555353
10849,555866
10851,555961
10853,555357
10856,556181
10858,556643
10860,556674
10863,556175
10865,557538
10867,557680
10870,557532
10872,557077
10874,558415
10877,557932
10880,558590
10882,557943
10885,559277
10887,558739
10889,559492
10892,559130
10894,560135
10896,559583
10899,560392
10901,559761
10903,559365
10905,560164
10908,560966
10910,560268
10912,559881
10915,561179
10917,561416
10919,560568
10923,560183
10925,561422
10927,560815
10930,561544
10932,560305
10934,561521
10937,560823
10939,561663
10941,560632
10944,561392
10946,560679
10948,561402
10951,560342
10953,559932
10955,560385
10958,561212
10960,560057
10962,559659
10966,560846
10968,560878
10970,559693
10973,559320
10975,560462
10977,559736
10980,560477
10982,558979
10984,560158
10987,559490
10989,560270
10991,559114
10993,559947
10996,559246
10998,560033
11000,558923
11003,558571
11005,559107
11008,559935
11011,558849
11013,558457
11015,559713
11018,559947
11020,558876
11022,558566
11025,559828
11027,559148
11029,560072
11032,558776
11034,560002
11036,559354
11039,560258
11041,559251
11043,560293
11046,559604
11048,560561
11051,559579
11054,559474
11056,560052
11058,560978
11061,559951
11063,559882
11065,561084
11068,561522
11070,560488
11072,560457
11075,561535
11077,560976
11079,561993
11081,561052
11084,561967
11086,561505
11088,562560
11091,561557
11094,562476
11096,562103
11099,563183
11101,562133
11103,562463
11106,562691
11108,563736
11110,562753
11113,563075
11115,563547
11117,563260
11120,563427
11122,563819
11124,564072
11127,563877
11129,565056
11131,564583
11134,564663
11137,564488
11139,565670
11142,564681
11144,565225
11146,565052
11149,566210
11151,565241
11153,565843
11156,565663
11158,566828
11160,565758
11163,566460
11165,566255
11167,566160
11169,566353
11172,566970
11174,566721
11176,566701
11180,567887
11182,567586
11184,567251
11187,567201
11189,568398
11191,567328
11194,567680
11196,567699
11198,568854
11201,567852
11203,568634
11205,568147
11208,569344
11210,568322
11212,569062
11215,568582
11217,568587
11219,568787
11223,569529
11225,569020
11227,569069
11230,570248
11232,570017
11234,569465
11237,569450
11239,570635
11241,569631
11244,569828
11246,569845
11248,571042
11250,570050
11253,570830
11255,570343
11257,571550
11260,570464
11262,571362
11265,570797
11268,570786
11270,570988
11272,571838
11275,571325
11277,571317
11279,572520
11282,572339
11284,571778
11286,571856
11289,572992
11291,572007
11293,572212
11296,572225
11298,573353
11300,572243
11303,573014
11305,572227
11308,573132
11311,571880
11313,572438
11315,571613
11318,571369
11320,570582
11322,570953
11325,569882
11327,569534
11329,569897
11332,568479
11334,567250
11336,566935
11338,566962
11341,565323
11343,564253
11345,563983
11348,563837
11351,562311
11353,562457
11356,560974
11358,560674
11360,559257
11363,559454
11365,558254
11367,558209
11370,556483
11372,556831
11374,555681
11377,555773
11379,555316
11381,554557
11384,553536
11386,553744
11388,553291
11392,552259
11394,551879
11396,552220
11399,551750
11401,550824
11403,551408
11406,550615
11408,550556
11410,549776
11413,550501
11415,549780
11417,550429
11420,549190
11422,550016
11424,549346
11426,550067
11429,549508
11431,549832
11433,549218
11437,550077
11439,549532
11441,549024
11444,549392
11446,550309
11448,549754
11451,549301
11453,550237
11455,549709
11458,550116
11460,549765
11462,550782
11465,550235
11467,551270
11469,550295
11472,551361
11474,550853
11476,551922
11480,551285
11482,551996
11484,551474
11487,552628
11489,551949
11491,551584
11494,552133
11496,553229
11498,552584
11501,552219
11503,553316
11505,552826
11508,553217
11510,552884
11512,553955
11514,553462
11517,554563
11520,553617
11522,554606
11525,554168
11527,555310
11529,554704
11532,555395
11534,554949
11536,556081
11539,555443
11541,555213
11543,555747
11546,556939
11548,556255
11550,555960
11553,557017
11555,556530
11557,556998
11560,556736
11563,557739
11565,557235
11568,558329
11570,557356
11572,558263
11575,557717
11577,558862
11579,558110
11582,558640
11584,558090
11586,559190
11589,558412
11591,558237
11593,558235
11596,559332
11598,558525
11600,558435
11602,558750
11606,558288
11608,558485
11610,558413
11613,558650
11615,558137
11617,559175
11620,558349
11622,558312
11624,557940
11627,558935
11629,558084
11631,557943
11634,557626
11636,558620
11638,557847
11641,557952
11643,557359
11645,558431
11649,557568
11651,557729
11653,557341
11656,557103
11658,557369
11660,557613
11663,557112
11665,556915
11667,558061
11670,557498
11672,556929
11674,556788
11677,557961
11679,557168
11681,556939
11684,556855
11686,558022
11688,557240
11691,557768
11694,557016
11696,558216
11698,557496
11701,558007
11703,557253
11705,557242
11708,557779
11710,558317
11712,557548
11715,557600
11717,558816
11719,558750
11722,557916
11724,557937
11726,559270
11729,558575
11731,558426
11734,558527
11737,559815
11739,559079
11741,559743
11744,558929
11746,560364
11748,559698
11751,560357
11753,559583
11755,559632
11758,560285
11760,560980
11762,560161
11765,560218
11767,561570
11769,561646
11772,560824
11774,560903
11777,562215
11779,561610
11782,561480
11784,561565
11786,562916
11789,562279
11791,562962
11793,562109
11796,563550
11798,562843
11800,563568
11803,562780
11805,562913
11807,563596
11810,564229
11812,563392
11814,563581
11817,564834
11820,564876
11822,564042
11825,564235
11827,565490
11829,564779
11832,564651
11834,564936
11836,566018
11839,565378
11841,566108
11843,565252
11846,566574
11848,565823
11850,566603
11853,565771
11855,566164
11857,566349
11859,567131
11863,566246
11865,566765
11867,567341
11870,567586
11872,566672
11874,567283
11877,567720
11879,567259
11881,567180
11884,567826
11886,568099
11888,567687
11891,568519
11893,567646
11895,568434
11898,568109
11900,568953
11902,568088
11906,568833
11908,568489
11910,569336
11913,568474
11915,569248
11917,569230
11920,569785
11922,568882
11924,569793
11927,569541
11929,569338
11931,569369
11934,570299
11936,569953
11938,569762
11941,570698
11943,569891
11945,570521
11948,570283
11951,571252
11953,570388
11955,571460
11958,570921
11960,571795
11962,570957
11965,571940
11967,571445
11969,572195
11972,571195
11982,571052
11983,571052
11985,571846
11987,570976
11988,570515
11991,571110
11993,569839
11995,570440
11997,569393
11999,568765
12001,569090
12003,567613
12005,568120
12007,566876
12009,566112
12011,566305
12013,564705
12015,565196
12017,563896
12019,563254
12022,561697
12024,562101
12026,560891
12029,560074
12032,560274
12034,559176
12036,557938
12039,557200
12041,557393
12043,555978
12046,555376
12048,554741
12050,555082
12053,553697
12055,554250
12057,552644
12060,553037
12062,551745
12064,552466
12067,551479
12069,551534
12071,550342
12075,551211
12077,550301
12079,549955
12082,550449
12084,550252
12086,549438
12089,549335
12091,549795
12093,548794
12096,549068
12098,549107
12100,549508
12103,548649
12105,549708
12107,549115
12110,549452
12112,548738
12114,549911
12118,549271
12120,549700
12122,549074
12124,550210
12127,549613
12129,550024
12131,550084
12134,550750
12136,550236
12138,550695
12141,550656
12143,550136
12145,550889
12148,551486
12150,551256
12152,550841
12155,552079
12157,552207
12160,551921
12163,551466
12165,552808
12167,552322
12170,552642
12172,552253
12174,553555
12177,553060
12179,553784
12181,553360
12184,554352
12186,553858
12188,554701
12191,554046
12193,553785
12195,554670
12198,555500
12200,554789
12203,554658
12206,556036
12208,556507
12210,555704
12212,555521
12215,556944
12217,556466
12219,557418
12222,556410
12224,557851
12226,557378
12229,558276
12231,557446
12233,558628
12236,558098
12238,559040
12240,558196
12243,557875
12246,558645
12248,559556
12251,558586
12253,558348
12255,559591
12258,559803
12260,558838
12262,558443
12265,559703
12267,559025
12269,559879
12272,558428
12274,559638
12276,558897
12279,559754
12281,558630
12283,559378
12286,558725
12289,559433
12291,558293
12294,557928
12296,558348
12298,559163
12300,557971
12303,557591
12305,558672
12307,558682
12310,557524
12312,557183
12314,558331
12317,557570
12319,558348
12321,556835
12324,557956
12326,557224
12328,558050
12332,556853
12334,557607
12336,556965
12339,557780
12341,556720
12343,556442
12346,556826
12348,557648
12350,556578
12353,556501
12355,557422
12357,557764
12360,556664
12362,556587
12364,557423
12367,556921
12369,557871
12371,556984
12375,557575
12377,557129
12379,558127
12382,557116
12384,557787
12386,557443
12388,558461
12391,557517
12393,557864
12395,557917
12398,558928
12400,558031
12402,558450
12405,558644
12407,559522
12409,558537
12412,559084
12414,559136
12417,558919
12420,560088
12422,559687
12424,559711
12427,559613
12429,560711
12431,559814
12434,560308
12436,560291
12438,561429
12441,560528
12443,561117
12445,560927
12448,562035
12450,561180
12452,561896
12455,561652
12457,562802
12460,561849
12463,562623
12465,562277
12467,562331
12469,563513
12472,563356
12474,562934
12476,562978
12479,564162
12481,563233
12483,563555
12486,563648
12488,564820
12490,563883
12493,564706
12495,564234
12497,565442
12500,564515
12503,565247
12505,564800
12508,564844
12510,565077
12512,565835
12515,565374
12517,565396
12519,566578
12522,566401
12524,565923
12526,565926
12529,567069
12531,566060
12533,566348
12536,566373
12538,567536
12540,566493
12544,567349
12546,566865
12548,567946
12551,566956
12553,567861
12555,567280
12557,567295
12560,567450
12562,568267
12564,567729
12567,567793
12569,568839
12571,568644
12574,568165
12576,568254
12578,569359
12581,568386
12583,568635
12585,568756
12589,569814
12591,568848
12593,569702
12596,569332
12598,570318
12600,569364
12603,570250
12605,569692
12607,569946
12610,569898
12612,570693
12614,570177
12617,570578
12619,571182
12621,571034
12624,570422
12626,570738
12628,571188
12632,570149
12634,570075
12636,570351
12639,570361
12641,569320
12643,569858
12645,569032
12648,568687
12650,567440
12652,567777
12655,566694
12657,566745
12659,564876
12662,565196
12664,564007
12666,563958
12669,563255
12672,562152
12674,560957
12677,561005
12679,560127
12681,558927
12684,558098
12686,558270
12688,557274
12691,556169
12693,556517
12695,555688
12698,554706
12700,553734
12702,554160
12705,553176
12707,553573
12709,551621
12712,552248
12715,551251
12717,551774
12720,550823
12722,550716
12724,549865
12727,550518
12729,549568
12731,548918
12734,548952
12736,549686
12738,548876
12740,548318
12743,549125
12745,549297
12747,548509
12750,547976
12752,548903
12754,548314
12758,549287
12760,548028
12762,548977
12765,548419
12767,549454
12769,548689
12772,549327
12774,548817
12776,549827
12779,549194
12781,548842
12783,549318
12786,550463
12788,549791
12790,549434
12793,550466
12795,550002
12797,550458
12801,550182
12803,551228
12805,550747
12808,551914
12810,551005
12812,552041
12815,551584
12817,552716
12819,552093
12821,552882
12824,552420
12826,553545
12828,552876
12831,552679
12833,553270
12835,554439
12838,553797
12840,553617
12843,554674
12846,554239
12848,554778
12850,554664
12853,555612
12855,555192
12857,556406
12860,555692
12862,556525
12864,556231
12867,557416
12869,556792
12871,557483
12874,557122
12876,558414
12878,557706
12881,557864
12883,557939
12886,559150
12889,558490
12891,558632
12893,558809
12896,558512
12898,558959
12900,559169
12903,559280
12905,558938
12907,560072
12909,559442
12912,559331
12914,559049
12916,560218
12919,559369
12921,559268
12923,559022
12926,560053
12929,559234
12931,559469
12934,558746
12936,559803
12938,559009
12941,559223
12943,558681
12945,558479
12948,558600
12950,558971
12952,558275
12955,558108
12957,559146
12959,558681
12962,557884
12964,557747
12966,558856
12969,557913
12972,557551
12974,557428
12977,558623
12979,557735
12981,558139
12984,557217
12986,558406
12988,557552
12991,558071
12993,557138
12995,557177
12997,557507
13000,558091
13002,557214
13004,557185
13007,558398
13009,558141
13011,557290
13015,557348
13017,558584
13019,557821
13022,557626
13024,557662
13026,558975
13029,558132
13031,558772
13033,558021
13036,559248
13038,558554
13040,559243
13043,558434
13045,558472
13047,559080
13050,559805
13052,558954
13054,559059
13058,560344
13060,560373
13062,559573
13065,559697
13067,561010
13069,560325
13072,560193
13074,560391
13076,561648
13078,560965
13081,561707
13083,560935
13085,562366
13088,561657
13090,562410
13092,561605
13095,561797
13097,562370
13100,563091
13103,562280
13105,562561
13107,563746
13110,563824
13112,563075
13114,563365
13117,564433
13119,563802
13121,563773
13124,564149
13126,565039
13128,564446
13131,565235
13133,564489
13135,565675
13138,565158
13140,565969
13143,565149
13146,565711
13148,565795
13150,566632
13153,565775
13155,566434
13157,566847
13160,567203
13162,566386
13164,567068
13166,567351
13169,566930
13171,566902
13173,567729
13176,567846
13178,567534
13180,568349
13184,567522
13186,568304
13188,567976
13191,568869
13193,567986
13195,568829
13198,568522
13200,569358
13202,568472
13205,569359
13207,569167
13209,569836
13212,568972
13214,569945
13216,569635
13219,569410
13221,569396
13223,570451
13227,570010
13229,569827
13231,570690
13234,569857
13236,570457
13238,570264
13241,571169
13243,570349
13245,571428
13248,570721
13250,571620
13252,570860
13254,571963
13257,571480
13259,572245
13261,571432
13264,572485
13266,571978
13268,571842
13272,571890
13274,573049
13276,572499
13279,572383
13281,573261
13283,572408
13286,572897
13288,572628
13290,573449
13293,572477
13295,573490
13297,572312
13300,572955
13302,571818
13304,572573
13307,571518
13309,571254
13312,569873
13315,570399
13317,569119
13319,568372
13322,566999
13324,567398
13326,566024
13329,565199
13331,565358
13333,563769
13336,562758
13338,561956
13340,561990
13342,560406
13345,560748
13347,558707
13349,558813
13352,557263
13355,557757
13357,556479
13360,555953
13362,554502
13364,555081
13367,553872
13369,553373
13371,553441
13374,552853
13376,551747
13378,551367
13381,551506
13383,550333
13385,550159
13388,549993
13390,549939
13392,548901
13395,549776
13398,548992
13400,548826
13403,548000
13405,548934
13407,548160
13410,548229
13412,547506
13414,548574
13417,547867
13419,548235
13421,547977
13424,548509
13426,547884
13428,548392
13430,548031
13433,547520
13435,548144
13437,548692
13441,548256
13443,547865
13445,549120
13448,549202
13450,548718
13452,548369
13455,549653
13457,549154
13459,549315
13462,549061
13464,550327
13466,549859
13469,550585
13471,549976
13473,551064
13476,550522
13478,551365
13480,550694
13484,550374
13486,551260
13488,552072
13491,551287
13493,551141
13495,552435
13498,552828
13500,552043
13502,551842
13505,553198
13507,552706
13509,552747
13512,552571
13514,553999
13516,553534
13518,554405
13521,553590
13523,554838
13526,554340
13529,555262
13531,554438
13533,554283
13536,555210
13538,556166
13540,555310
13543,555142
13545,556546
13547,557035
13550,556121
13552,556009
13554,557278
13557,556770
13559,556766
13561,556562
13564,557880
13566,557298
13569,558221
13572,557182
13574,558290
13576,557693
13579,558502
13581,557491
13583,557218
13586,557785
13588,558635
13590,557574
13593,557237
13595,558392
13597,558582
13600,557506
13602,557220
13604,558299
13606,557600
13609,557290
13612,557031
13614,558090
13617,557400
13619,558162
13621,557040
13624,557802
13626,557147
13628,557910
13631,556821
13633,556670
13635,556869
13638,557648
13640,556538
13642,556494
13645,557150
13647,557394
13649,556316
13652,556460
13655,556979
13657,556488
13660,557340
13662,556453
13664,556843
13667,556450
13669,557385
13671,556336
13674,556874
13676,556605
13678,557504
13681,556472
13683,556877
13685,556757
13687,557695
13690,556724
13692,557186
13694,557236
13698,558127
13700,557142
13702,557680
13705,557650
13707,557490
13709,558553
13712,558193
13714,558046
13716,558052
13719,559093
13721,558135
13723,558624
13726,558592
13728,559742
13730,558811
13733,559503
13735,559194
13737,560362
13741,559404
13743,560199
13745,559901
13748,561071
13750,560152
13752,560865
13755,560518
13757,560568
13759,561750
13762,561574
13764,561213
13766,561271
13769,562414
13771,561515
13773,561971
13775,562001
13778,563117
13780,562308
13783,563114
13786,562741
13788,563892
13790,562915
13793,563791
13795,563329
13797,564630
13800,563707
13802,564548
13804,564076
13807,564143
13809,565281
13811,565242
13814,564792
13816,564861
13818,565983
13821,565008
13824,565409
13826,565429
13829,566564
13831,565700
13833,566510
13836,566097
13838,567216
13840,566306
13843,567076
13845,566591
13847,567777
13850,566828
13852,567693
13854,567206
13857,567295
13859,568345
13861,568225
13863,567708
13867,567858
13869,568874
13871,567861
13874,568179
13876,568380
13878,569297
13881,568389
13883,569215
13885,568962
13888,569768
13890,568848
13892,569686
13895,569184
13897,570179
13899,569333
13902,570186
13904,569665
13906,570173
13910,570595
13912,570752
13914,570273
13917,570816
13919,571107
13921,570393
13924,570830
13926,571421
13928,571546
13931,570998
13933,571950
13935,572109
13938,572078
13940,571461
13942,572477
13945,571949
13947,572652
13949,571790
13952,572682
13955,572082
13957,572737
13959,572278
13962,572231
13964,571369
13966,571858
13969,571082
13971,570134
13973,569588
13976,569885
13978,568782
13980,567672
13983,567966
13985,566963
13987,565645
13990,564593
13992,564799
13995,563536
13998,563727
14000,561236
14002,561443
14005,560224
14007,560456
14009,559082
14012,558285
14014,557103
14016,557406
14019,556118
14021,555071
14023,554373
14026,554787
14028,553512
14030,552586
14033,553034
14035,552545
14038,551363
14040,550560
14043,551140
14045,550190
14047,550885
14050,549078
14052,549747
14054,548969
14057,549716
14059,548720
14061,548884
14064,548118
14066,548913
14068,548049
14071,547552
14073,547735
14075,548662
14078,547846
14081,547399
14083,548343
14086,548669
14088,547897
14090,547499
14093,548528
14095,547972
14097,548993
14100,547934
14102,548919
14104,548395
14107,549538
14109,548772
14111,549495
14114,549026
14116,550127
14118,549449
14121,549182
14124,549720
14126,550915
14128,550203
14131,550052
14133,550937
14135,551724
14138,550957
14140,550941
14142,551661
14145,551232
14147,552480
14149,551819
14152,552426
14154,552100
14156,553296
14159,552576
14161,553135
14163,552880
14167,554133
14169,553461
14171,553686
14174,553753
14176,555009
14178,554335
14181,554669
14183,554811
14185,554732
14188,555333
14190,555682
14192,555761
14195,555680
14197,556943
14199,556752
14202,556661
14204,556626
14206,557878
14210,557227
14212,557478
14214,557444
14216,558768
14219,558047
14221,558516
14223,558132
14226,559297
14228,558523
14230,559001
14233,558487
14235,558426
14237,558820
14240,559285
14242,558573
14244,558494
14247,559630
14249,559235
14252,558419
14255,558371
14257,559493
14259,558581
14262,558178
14264,558146
14266,559244
14269,558362
14271,558777
14273,557782
14276,558839
14278,557912
14280,558385
14283,557448
14285,557349
14287,557541
14290,558014
14292,557006
14295,556988
14297,558101
14300,557698
14302,556716
14304,556693
14307,557805
14309,556870
14311,556479
14314,556425
14316,557589
14318,556726
14321,557253
14323,556353
14325,557489
14328,556673
14330,557246
14332,556386
14336,556365
14338,556741
14340,557357
14343,556484
14345,556555
14347,557691
14350,557589
14352,556710
14354,556837
14357,558059
14359,557257
14361,557138
14364,557233
14366,558450
14368,557699
14371,558444
14373,557730
14375,558963
14379,558216
14381,558934
14383,558095
14385,558396
14388,558777
14390,559520
14392,558721
14395,559087
14397,560080
14399,560204
14402,559347
14404,559879
14406,560665
14409,560081
14411,560093
14413,560614
14416,561296
14418,560751
14420,561552
14424,561345
14426,561922
14428,561452
14431,562275
14433,561463
14435,562170
14438,562158
14440,563023
14442,562271
14445,562983
14447,563315
14449,563742
14452,562913
14454,563752
14456,563857
14459,563595
14461,563605
14464,564450
14467,564568
14469,564266
14471,565136
14473,564294
14476,565116
14478,564846
14480,565769
14483,564937
14485,565870
14487,565422
14490,566295
14492,565490
14494,566536
14497,566216
14499,566899
14501,566079
14504,567120
14507,566701
14509,566520
14512,566613
14514,567645
14516,567212
14519,567029
14521,567993
14523,567143
14526,567765
14528,567554
14530,568481
14533,567653
14535,568757
14537,567991
14540,568927
14542,568164
14544,569230
14547,568739
14550,569479
14552,568693
14555,569804
14557,569315
14559,569159
14561,569259
14564,570399
14566,569912
14568,569736
14571,570658
14573,569868
14575,570459
14578,570311
14580,571273
14582,570376
14585,571565
14587,570798
14589,571641
14593,570745
14595,571844
14597,571134
14600,571535
14602,570469
14604,571413
14607,570532
14609,570045
14611,569303
14614,569994
14616,568882
14618,568243
14621,568547
14623,567017
14625,566292
14628,565443
14630,565631
14632,564045
14636,564448
14638,562305
14640,562347
14643,560800
14645,561171
14647,559873
14649,559115
14652,557606
14654,558098
14656,556817
14659,556272
14661,554670
14663,555256
14666,554068
14668,553690
14670,553435
14673,552210
14675,551806
14678,551532
14681,551225
14683,550216
14685,550951
14688,549933
14690,549521
14692,548633
14695,549537
14697,548669
14699,548329
14702,547605
14704,548615
14706,547871
14709,548109
14711,547047
14713,548153
14716,547441
14718,547821
14721,547333
14724,546867
14726,547433
14728,547877
14731,547380
14733,546917
14735,548211
14737,548277
14740,547645
14742,547362
14744,548649
14747,548157
14749,548158
14751,547889
14754,549183
14756,548723
14758,549541
14761,548825
14764,549951
14766,549503
14769,550318
14771,549514
14773,549366
14776,550305
14778,551147
14780,550375
14783,550194
14785,551597
14787,552015
14790,551201
14792,551044
14794,552479
14797,552003
14799,552138
14801,552011
14804,553410
14807,552990
14809,553880
14812,553112
14814,554416
14816,554016
14819,554879
14821,554149
14823,554036
14825,555038
14828,555987
14830,555190
14832,555134
14835,556580
14837,557039
14839,556254
14842,556120
14844,557577
14846,557121
14850,557141
14852,556964
14854,558416
14857,557910
14859,558786
14861,557894
14864,559075
14866,558450
14868,559291
14871,558356
14873,558151
14875,558756
14878,559507
14880,558529
14882,558320
14885,559470
14887,559524
14889,558478
14893,558256
14895,559293
14897,558657
14900,558277
14902,558097
14904,558974
14906,558348
14909,559040
14911,557964
14913,558583
14916,557934
14918,558695
14920,557559
14923,557539
14925,557519
14927,558291
14930,557156
14932,557231
14935,557648
14938,557922
14940,556835
14942,556999
14945,557275
14947,556834
14949,556572
14952,556870
14954,557016
14956,556634
14959,557473
14961,556476
14963,556866
14966,556545
14968,557456
14970,556510
14973,556904
14976,556606
14978,557556
14981,556581
14983,557079
14985,556994
14988,557833
14990,556873
14992,557445
14994,557284
14997,557125
14999,557227
15001,557869
15004,557623
15006,557582
15008,558606
15011,557655
15013,558125
15015,558084
15019,559208
15021,558286
15023,559019
15026,558684
15028,559823
15030,558882
15033,559641
15035,559264
15037,560442
15040,559618
15042,560434
15044,560027
15047,560100
15049,561202
15051,561145
15054,560687
15056,560830
15058,561940
15062,561064
15064,561469
15066,561574
15069,562646
15071,561848
15073,562621
15076,562328
15078,563423
15080,562508
15082,563326
15085,562944
15087,564166
15089,563294
15092,564168
15094,563664
15096,563784
15099,564876
15101,564814
15104,564398
15107,564492
15109,565625
15111,564676
15114,565106
15116,565144
15118,566211
15121,565323
15123,566144
15125,565775
15128,566895
15130,565952
15132,566797
15135,566300
15137,567399
15139,566535
15142,567380
15144,566820
15147,566997
15150,567898
15152,567859
15154,567391
15157,567567
15159,568409
15161,567523
15164,567912
15166,568187
15168,568835
15170,568052
15173,568986
15175,568881
15177,569401
15180,568565
15182,569417
15184,568906
15187,569704
15190,569049
15192,569904
15195,569400
15197,569979
15199,570145
15202,570465
15204,569994
15206,570611
15209,570682
15211,570053
15213,570541
15216,571274
15218,571155
15220,570610
15223,571567
15225,571884
15227,571657
15230,571128
15233,572055
15235,571509
15238,571970
15240,571406
15242,572307
15245,571634
15247,572353
15249,571639
15252,571776
15254,570918
15256,571395
15258,570450
15261,569561
15263,568922
15265,569298
15268,568035
15270,566949
15272,567237
15276,566258
15278,564779
15280,563598
15283,563867
15285,562577
15287,561312
15290,560145
15292,560405
15294,559141
15297,559399
15299,557914
15301,557111
15304,555843
15306,556161
15308,554747
15311,553739
15313,553021
15315,553415
15319,552047
15321,551158
15323,551591
15326,551145
15328,549841
15330,549113
15333,549600
15335,548719
15337,549312
15340,547468
15342,548062
15344,547269
15346,548001
15349,546896
15351,547078
15353,546385
15356,547194
15358,546202
15361,545748
15364,545894
15366,546770
15368,545880
15371,545512
15373,546373
15375,546853
15378,545950
15380,545645
15382,546543
15385,546001
15387,546993
15389,545944
15392,546969
15394,546366
15396,547442
15399,546699
15401,547407
15404,546965
15407,548009
15409,547288
15411,547135
15414,547598
15416,548726
15418,547992
15421,547988
15423,548696
15425,549459
15428,548708
15430,548795
15432,549336
15434,549046
15437,550207
15439,549654
15441,549951
15444,549704
15447,550968
15449,550216
15452,550697
15454,550495
15456,551672
15459,550953
15461,551282
15463,551320
15466,552567
15468,551828
15470,552188
15473,552199
15475,553437
15477,552712
15480,553168
15482,553039
15484,553057
15488,554321
15490,554176
15492,553929
15495,553988
15497,555214
15499,554571
15502,554685
15504,554773
15506,556047
15509,555205
15511,555855
15513,555346
15515,556562
15518,555784
15520,556365
15522,555706
15525,556898
15527,556055
15529,556615
15533,555842
15535,555852
15537,557057
15540,556727
15542,555873
15544,555897
15547,557028
15549,556051
15551,555747
15554,555700
15556,556848
15558,555903
15561,556406
15563,555558
15565,556617
15568,555669
15570,556137
15572,555139
15576,556289
15578,555330
15580,555860
15583,554921
15585,554874
15587,555993
15590,555574
15592,554643
15594,554604
15597,555736
15599,554782
15601,554414
15603,554456
15606,555593
15608,554696
15610,555277
15613,554389
15616,555580
15618,554676
15621,555258
15623,554445
15625,554488
15628,554774
15630,555454
15632,554577
15635,554665
15637,555879
15639,555740
15642,554873
15644,555014
15646,556216
15649,555324
15651,555282
15653,555432
15656,556551
15659,555768
15661,556486
15664,555923
15666,557069
15668,556280
15671,557035
15673,556252
15675,556621
15678,556880
15680,557683
15682,556881
15685,557371
15687,558126
15689,558288
15691,557517
15694,558125
15696,558823
15698,558163
15702,558193
15704,558872
15706,559344
15709,558837
15711,559722
15713,559628
15716,559979
15718,559490
15720,560386
15723,559615
15725,560407
15727,560210
15730,561120
15732,560336
15734,561164
15737,561264
15739,561735
15741,560977
15745,561930
15747,561873
15749,561543
15752,561681
15754,562616
15756,562486
15759,562165
15761,563086
15763,563365
15766,563132
15768,562741
15770,563740
15773,562928
15775,563910
15777,563425
15780,564258
15782,563468
15784,564600
15787,564217
15790,564916
15792,564142
15794,565209
15797,564742
15799,564518
15801,564693
15804,565820
15806,565303
15808,565065
15811,566000
15813,566266
15815,565810
15818,565551
15820,566478
15822,565748
15825,566871
15827,566116
15830,567079
15833,566264
15835,567478
15837,566915
15840,567645
15842,566859
15844,567996
15847,567462
15849,567255
15851,567419
15854,568577
15856,568067
15858,567862
15861,568880
15863,569231
15865,568751
15867,568529
15870,569478
15873,568703
15875,569837
15878,569004
15880,569974
15882,569036
15885,570170
15887,569516
15889,569945
15892,568933
15894,569891
15896,569058
15899,568531
15901,567794
15903,568524
15906,567464
15908,566780
15910,567043
15913,565538
15916,564823
15918,563973
15921,564101
15923,562505
15925,562992
15928,560818
15930,560697
15932,559106
15935,559576
15937,558217
15939,557252
15942,555834
15944,556330
15946,555014
15949,554478
15951,552798
15953,553345
15955,552115
15959,551779
15961,551327
15963,550143
15966,549723
15968,549518
15970,549032
15973,548024
15975,548806
15977,547772
15980,547252
15982,546385
15984,547259
15987,546387
15989,545977
15991,545275
15994,546296
15996,545516
15998,545817
16002,544620
16004,545721
16006,545030
16009,545437
16011,544778
16013,544322
16016,544956
16018,545434
16020,544825
16023,544416
16025,545742
16027,545742
16030,545011
16032,544798
16034,546107
16037,545608
16039,545524
16041,545328
16044,546640
16047,546172
16049,546874
16051,545911
16054,547375
16056,546855
16058,547616
16061,546875
16063,546713
16065,547621
16068,548375
16070,547621
16072,547436
16075,548856
16077,549204
16079,548381
16082,548250
16084,549649
16087,549135
16090,549157
16092,548993
16094,550450
16097,549935
16099,550808
16101,549899
16104,551281
16106,550874
16108,551656
16111,550880
16113,550763
16115,551779
16118,552621
16120,551908
16122,551774
16124,553227
16128,553602
16130,552846
16132,552688
16135,554106
16137,553607
16139,553673
16142,553521
16144,554938
16146,554452
16149,555226
16151,554297
16153,555579
16156,555055
16158,555765
16160,554904
16163,554739
16165,555386
16167,556129
16171,555189
16173,554965
16175,556165
16178,556173
16180,555193
16182,555066
16185,556005
16187,555418
16189,555022
16192,555015
16194,555714
16196,555156
16199,555855
16201,554810
16203,555308
16206,554767
16208,555473
16210,554408
16212,554531
16216,554464
16218,555157
16220,554041
16223,554210
16225,554413
16227,554711
16230,553685
16232,553897
16234,554045
16237,553633
16239,553379
16241,553638
16244,553682
16246,553360
16248,554192
16251,553259
16253,553571
16256,553316
16259,554163
16261,553149
16263,553664
16266,553287
16268,554162
16270,553219
16273,553758
16275,553577
16277,554395
16280,553458
16282,554106
16284,553821
16287,553706
16289,553748
16291,554466
16294,554094
16296,554128
16299,555070
16301,554263
16304,554601
16306,554620
16308,555580
16311,554755
16313,555459
16315,555205
16318,556133
16320,555300
16322,556118
16325,555777
16327,556815
16329,555947
16332,556809
16334,556418
16336,556449
16339,556652
16342,557494
16344,557091
16347,557147
16349,558204
16351,557344
16354,557804
16356,557862
16358,558822
16361,558005
16363,558848
16365,558584
16368,559579
16370,558749
16372,559581
16375,559213
16377,560272
16379,559443
16382,560290
16385,559871
16387,559965
16389,560137
16392,561003
16394,560531
16396,560671
16399,561654
16401,560782
16403,561192
16406,561346
16408,562281
16410,561412
16413,562289
16415,561938
16417,562819
16420,561941
16422,562858
16424,562404
16428,563376
16430,562476
16432,563360
16435,562944
16437,563171
16439,563870
16442,563898
16444,563444
16446,563787
16449,564322
16451,563547
16453,563929
16456,564351
16458,564715
16460,563967
16463,564927
16465,564986
16467,565105
16471,564549
16473,565469
16475,565002
16477,565578
16480,565032
16482,565956
16484,565561
16487,566243
16489,566137
16491,566556
16494,566137
16496,566928
16498,566745
16501,566219
16503,566791
16505,567568
16508,567260
16510,566780
16513,567733
16516,568075
16518,567586
16520,567087
16523,568058
16525,567461
16527,567500
16530,566876
16532,567623
16534,566933
16537,567538
16539,566505
16541,566317
16544,565372
16546,565743
16548,564441
16551,563581
16553,562835
16556,563093
16559,561609
16561,560531
16563,560846
16565,559888
16568,558346
16570,557317
16572,557596
16575,556461
16577,555126
16579,554107
16582,554416
16584,553315
16586,553689
16589,552191
16591,551690
16593,550625
16596,551040
16599,549610
16601,548795
16604,548310
16606,548841
16608,547557
16611,546814
16613,547385
16615,547219
16618,545949
16620,545374
16622,546013
16625,545298
16627,544895
16629,544390
16632,545156
16634,544444
16636,545361
16640,544265
16642,544708
16644,544155
16647,544985
16649,544016
16651,543715
16653,544092
16656,545067
16658,544171
16660,543875
16663,544854
16665,545397
16667,544529
16670,544385
16672,545312
16674,544869
16677,545097
16679,544946
16681,545906
16685,545513
16687,546662
16689,545821
16692,546623
16694,546265
16696,547426
16699,546652
16701,546701
16703,547144
16706,548266
16708,547484
16710,547642
16713,548127
16715,549132
16717,548395
16720,548620
16722,548937
16724,548816
16728,550013
16730,549591
16741,550626
16741,550783
16743,550783
16745,550754
16747,551948
16749,551211
16751,551707
16753,551687
16754,551739
16756,553088
16758,552308
16760,552870
16762,552761
16764,552799
16766,554131
16769,553382
16771,553979
16773,553715
16775,553794
16777,555066
16780,554890
16782,554469
16784,554559
16787,555867
16789,555051
16791,555075
16794,555139
16796,556332
16798,555390
16801,556016
16803,555445
16805,556598
16808,555633
16811,556209
16813,555380
16816,556495
16818,555550
16820,556067
16822,555154
16825,555171
16827,556257
16829,555781
16832,554898
16834,554864
16836,555959
16839,554855
16841,554466
16843,554452
16846,555507
16848,554397
16850,554898
16854,553927
16856,555013
16858,553964
16861,554533
16863,553579
16865,554636
16868,553536
16870,554126
16872,553162
16875,553172
16877,554233
16879,553850
16882,552949
16884,552942
16886,554078
16889,553024
16891,552760
16893,552847
16897,553941
16899,552907
16901,553598
16904,552816
16906,553977
16908,553008
16910,553726
16913,552863
16915,554201
16917,553265
16920,553969
16922,553117
16924,553336
16927,554488
16929,554282
16931,553485
16934,553744
16936,554861
16939,553988
16942,554000
16944,554330
16946,555402
16949,554505
16951,555387
16953,554983
16956,555883
16958,555107
16960,555948
16963,555169
16965,556432
16967,555755
16970,556612
16972,555850
16974,556497
16977,557070
16979,557288
16982,556506
16985,557238
16987,557647
16989,557098
16992,557244
16994,557966
16996,558316
16998,557778
17001,558646
17003,558790
17005,558951
17008,558451
17010,559394
17012,558612
17015,559544
17017,559125
17019,560120
17022,559330
17025,560304
17027,560211
17030,560684
17032,559974
17034,560930
17037,560762
17039,560418
17041,560542
17044,561596
17046,561366
17048,560964
17051,561915
17053,562245
17055,561880
17058,561476
17060,562495
17062,561752
17065,562862
17068,562094
17070,563089
17073,562237
17075,563390
17077,562911
17080,563536
17082,562777
17084,563881
17086,563406
17089,563036
17091,563322
17093,564434
17096,563909
17098,563592
17100,564564
17103,564967
17105,564484
17107,564144
17111,565203
17113,564404
17115,565616
17118,564726
17120,565781
17122,564996
17125,566211
17127,565687
17129,566423
17132,565618
17134,566807
17136,566211
17139,565838
17141,565972
17143,567174
17146,566505
17148,566060
17150,566903
17154,567065
17156,566288
17158,565635
17161,566310
17163,565139
17165,565942
17168,564186
17170,564549
17172,563223
17174,563827
17177,562599
17179,561908
17181,560442
17184,560845
17186,559561
17188,558579
17191,557183
17193,557604
17196,556289
17199,555324
17201,555377
17203,554362
17206,553071
17208,552236
17210,552169
17213,550760
17215,551361
17217,549518
17220,549325
17222,548108
17224,548793
17227,547682
17229,546944
17231,545883
17234,546618
17236,545560
17239,545284
17242,544119
17244,545035
17246,544117
17249,544012
17251,543725
17253,543914
17256,543104
17258,543195
17260,542855
17262,542237
17265,543324
17267,542822
17269,542433
17272,541905
17274,543124
17276,542479
17280,542340
17282,541970
17284,543223
17287,542617
17289,543059
17291,542280
17294,543622
17296,543029
17298,543566
17301,543060
17303,542795
17305,543646
17308,544250
17310,543632
17312,543411
17315,544856
17317,544944
17319,544345
17323,544231
17325,545649
17327,545138
17330,545126
17332,545050
17334,546411
17337,545935
17339,546569
17341,545764
17343,547233
17346,546756
17348,547482
17350,546750
17353,546621
17355,547615
17357,548272
17360,547563
17362,547470
17364,548937
17368,549277
17370,548552
17372,548429
17375,549912
17377,549469
17379,549537
17382,549424
17384,550914
17386,550528
17389,551283
17391,550480
17393,551942
17396,551469
17398,552218
17400,551454
17403,551381
17405,552376
17408,553110
17411,552320
17413,552132
17415,553522
17418,553681
17420,552835
17422,552622
17425,553981
17427,553385
17429,553127
17431,552950
17434,554212
17436,553578
17438,554197
17441,553025
17443,554260
17445,553567
17448,554090
17451,553129
17453,552976
17456,553392
17458,553920
17460,552904
17463,552791
17465,553749
17467,553606
17470,552592
17472,552618
17474,553239
17477,552675
17479,552309
17481,552341
17484,552905
17486,552324
17488,552993
17491,552138
17494,552556
17496,552074
17499,552644
17501,551701
17503,551978
17506,551883
17508,552540
17510,551613
17513,551915
17515,552114
17517,552426
17519,551555
17522,551976
17524,552103
17526,551843
17529,551765
17531,552221
17533,552233
17537,552051
17539,552860
17541,552509
17544,552490
17546,552359
17548,553191
17551,552351
17553,553014
17555,552794
17558,553626
17560,552817
17562,553479
17565,553339
17567,554162
17569,553397
17572,554112
17574,553876
17576,553848
17580,553966
17582,554760
17584,554420
17587,554469
17589,555405
17591,554616
17594,555115
17596,555147
17598,556095
17601,555343
17603,556187
17605,555870
17607,556853
17610,556049
17612,556990
17614,556559
17617,557590
17619,556814
17622,557656
17625,557349
17627,557395
17629,557497
17632,558395
17634,558051
17636,558041
17639,559008
17641,558246
17643,558756
17646,558865
17648,559736
17650,558936
17653,559851
17655,559556
17657,560412
17660,559621
17662,560547
17665,560131
17668,560995
17670,560266
17672,561152
17675,560728
17677,560816
17679,560908
17682,561765
17684,561336
17686,561433
17689,562264
17691,561467
17693,561879
17695,561962
17698,562776
17700,561950
17702,562855
17705,562559
17708,563250
17710,562456
17713,563332
17715,562891
17717,563770
17720,562967
17722,563822
17724,563377
17727,563669
17729,563341
17731,564330
17734,563894
17736,564304
17738,564470
17741,563868
17743,564379
17745,564855
17748,564897
17751,564294
17753,565307
17756,565358
17758,565315
17760,564798
17763,565761
17765,565360
17767,565823
17770,565310
17772,566321
17774,565870
17777,566623
17779,565924
17781,566910
17783,566530
17786,567289
17788,566867
17790,566446
17794,567013
17796,567849
17798,567248
17801,566821
17803,567805
17805,567987
17808,567180
17810,566632
17812,567492
17815,566754
17817,566259
17819,565567
17822,566128
17824,565124
17826,565523
17829,563132
17831,563532
17833,562317
17837,562619
17839,560947
17841,559907
17844,558920
17846,559106
17848,557361
17851,556350
17853,556621
17855,555559
17858,553886
17860,552821
17862,553170
17865,551992
17867,550599
17869,549716
17871,550089
17874,549005
17876,549331
17879,547776
17882,547414
17884,546414
17886,546927
17889,545431
17891,544688
17893,544352
17896,544953
17898,543564
17900,542973
17903,543724
17905,543563
17907,542320
17910,541851
17912,542632
17914,541884
17917,541560
17920,541152
17922,542029
17925,541383
17927,542308
17929,541248
17932,541846
17934,541295
17936,542293
17939,541216
17941,540975
17943,541506
17946,542491
17948,541551
17950,541387
17952,542315
17955,542904
17957,542008
17959,541950
17963,542867
17965,542435
17967,542629
17970,542648
17972,543418
17974,543088
17977,544250
17979,543321
17981,544132
17984,543822
17986,544916
17988,544018
17991,544287
17993,544578
17995,545710
17998,544811
18000,545084
18002,545434
18006,546395
18008,545508
18010,545871
18013,546154
18015,545955
18017,546216
18020,546658
18022,546733
18024,546689
18027,547896
18029,546986
18031,547447
18034,547425
18036,548724
18038,547849
18040,548401
18043,548389
18045,549651
18048,548781
18051,549421
18053,549237
18055,550549
18058,549695
18060,550351
18062,550000
18065,550148
18067,550454
18069,551184
18072,550652
18074,550736
18076,551977
18079,551022
18081,551182
18083,551244
18086,552439
18088,551428
18091,552155
18094,551531
18096,552640
18098,551572
18101,552261
18103,551557
18105,552689
18108,551676
18110,552284
18112,551488
18115,551543
18117,551500
18119,552102
18122,551299
18124,551252
18126,552385
18128,551283
18131,551016
18134,551006
18136,552068
18139,551000
18141,551575
18143,550727
18146,551802
18148,550711
18150,551374
18153,550494
18155,551573
18157,550488
18160,551123
18162,550322
18164,550303
18167,551401
18169,551011
18171,550141
18174,550207
18177,551306
18179,550303
18182,550170
18184,550215
18186,551409
18189,550311
18191,551095
18193,550416
18196,551517
18198,550542
18200,551314
18203,550528
18205,551899
18207,550848
18210,551683
18212,550897
18214,551184
18216,552168
18220,552078
18222,551379
18224,551708
18227,552666
18229,551814
18231,551932
18234,552365
18236,553202
18238,552387
18241,553194
18243,553144
18245,553716
18248,552967
18250,553858
18252,553156
18255,554353
18257,553658
18259,554551
18263,553934
18265,554607
18267,554967
18270,555259
18272,554614
18274,555410
18277,555682
18279,555062
18281,555351
18284,556196
18286,556331
18288,555726
18291,556753
18293,556981
18295,556981
18298,556491
18300,557506
18302,556880
18305,557746
18308,557217
18310,558173
18312,557488
18315,558523
18317,558374
18319,558879
18322,558254
18324,559282
18326,558987
18329,558530
18331,558905
18333,559963
18336,559583
18338,559212
18340,560233
18343,560658
18345,560191
18348,559839
18351,560822
18353,560153
18355,560748
18358,560368
18360,561344
18362,560690
18365,561823
18367,561312
18369,561877
18372,561244
18374,562342
18376,561823
18379,561404
18381,561742
18383,562848
18386,562314
18388,561907
18391,562947
18393,563407
18396,562842
18398,562443
18400,563401
18403,562742
18405,563315
18407,562930
18410,563939
18412,563305
18414,564436
18417,563915
18419,564561
18421,563861
18424,565002
18426,564455
18428,564163
18432,564422
18434,565605
18436,565056
18439,564763
18441,565770
18443,566334
18446,565717
18448,565350
18450,566381
18453,565688
18455,566850
18457,565852
18460,566762
18462,565999
18464,567052
18467,566347
18469,566575
18471,565651
18475,566539
18477,565600
18479,565059
18481,564213
18484,564863
18486,563700
18488,562903
18491,562935
18493,562090
18495,560724
18498,559963
18500,559565
18502,558244
18505,558690
18507,556538
18509,556013
18512,554758
18514,555211
18516,553792
18520,552501
18522,551380
18524,551862
18527,550609
18529,550118
18531,548412
18534,549064
18536,547819
18538,547471
18541,546806
18543,546599
18545,545534
18548,545325
18550,544613
18552,543918
18555,544762
18557,543767
18560,543018
18562,542434
18565,543419
18567,542536
18569,541962
18572,541464
18574,542606
18576,541698
18579,542089
18581,541063
18583,542178
18586,541457
18588,541934
18590,541233
18593,542225
18595,541563
18597,542083
18600,541315
18603,541181
18605,542443
18608,542455
18610,541713
18612,541600
18615,542935
18617,542417
18619,542319
18622,542294
18624,543704
18626,543131
18629,543804
18631,543020
18633,544433
18636,543922
18638,544564
18640,543851
18643,545232
18646,544729
18648,545334
18650,544665
18653,544667
18655,546011
18657,546258
18660,545554
18662,545505
18664,546860
18667,546393
18669,546373
18671,546383
18674,547729
18676,547201
18678,548017
18681,547241
18683,548635
18685,548171
18689,548826
18691,548137
18693,548171
18696,549124
18698,549842
18700,549154
18703,549262
18705,550624
18707,550907
18710,550227
18712,550323
18714,551710
18717,551163
18719,551131
18721,551251
18724,552558
18726,551990
18728,552744
18732,552059
18734,553166
18736,552714
18738,553338
18741,552478
18743,552678
18745,552986
18748,553639
18750,552714
18752,552908
18755,553627
18757,553623
18759,552681
18762,552956
18764,553504
18766,553000
18769,552572
18771,552803
18774,553175
18777,552622
18779,553232
18781,552513
18784,552697
18786,552207
18788,552779
18791,551756
18793,552139
18795,551767
18798,552333
18800,551368
18802,551816
18805,551658
18807,551926
18809,550945
18812,551427
18814,551173
18817,550918
18820,550586
18822,551169
18824,550876
18826,550699
18829,551338
18831,551115
18833,550800
18836,550544
18838,551266
18840,550371
18843,551084
18845,550595
18847,551380
18850,550467
18852,551274
18854,550848
18857,551542
18860,550758
18862,551586
18865,551139
18867,551086
18869,551094
18872,551990
18874,551517
18876,551492
18879,552337
18881,552491
18883,552069
18886,552096
18888,552904
18890,552123
18893,553064
18895,552666
18897,553501
18900,552813
18903,553724
18905,553313
18908,554253
18910,553459
18912,554504
18914,554057
18917,554076
18919,554199
18921,555239
18924,554775
18926,554843
18928,555793
18931,555984
18933,555562
18935,555658
18938,556578
18940,555818
18942,556848
18946,556470
18948,557321
18950,556548
18953,557525
18955,557118
18957,558063
18960,557348
18962,558356
18964,557911
18967,558020
18969,558101
18971,559126
18974,558681
18976,558824
18978,559588
18981,559824
18983,559318
18985,559504
18989,560202
18991,559413
18993,560470
18996,560161
18998,560677
19000,560009
19002,561067
19005,560518
19007,561168
19009,560529
19012,561570
19014,561076
19016,561496
19019,560988
19021,562104
19023,561581
19026,562090
19028,562124
19031,561533
19034,562109
19036,562640
19038,562517
19041,561944
19043,563090
19045,563184
19048,562920
19050,562461
19052,563566
19055,563077
19057,563403
19059,562975
19062,564140
19064,563616
19066,564373
19069,563523
19072,564724
19074,564214
19077,565049
19079,564475
19081,564148
19084,564808
19086,565680
19088,564981
19090,564722
19093,565906
19095,566299
19097,565478
19100,565172
19102,566387
19104,565772
19107,565651
19109,565218
19111,566276
19115,565599
19117,566271
19119,564445
19122,565244
19124,564359
19126,564790
19129,563349
19131,562467
19133,561964
19136,562196
19138,560576
19140,559607
19143,560039
19145,558926
19147,557216
19150,556177
19152,556608
19154,555297
19158,553793
19160,552732
19162,553209
19165,551951
19167,552224
19169,549652
19171,550137
19174,548940
19176,549333
19178,547696
19181,546819
19183,546428
19185,546860
19188,545356
19190,544614
19192,545305
19195,544905
19197,543521
19200,542941
19203,543733
19205,542870
19207,542270
19210,541781
19212,542661
19214,541884
19217,542643
19219,541038
19221,542079
19224,541378
19226,542232
19228,541195
19231,540890
19233,541332
19235,542263
19238,541194
19240,541034
19243,542019
19246,542495
19248,541504
19250,541522
19253,542417
19255,541934
19257,542095
19259,542174
19262,542975
19264,542593
19266,543714
19269,542805
19271,543648
19273,543385
19276,544493
19278,543618
19280,543946
19283,544247
19286,545428
19288,544535
19291,544873
19293,545229
19295,546342
19298,545491
19300,545942
19302,546120
19305,546078
19307,546360
19309,546867
19312,546953
19314,546967
19316,548195
19319,547293
19321,547976
19323,547972
19326,549245
19329,548384
19331,549131
19334,549074
19336,550347
19338,549484
19341,550248
19343,550086
19345,551434
19348,550647
19350,551380
19352,551125
19354,551276
19357,551669
19359,552426
19361,552092
19364,552171
19366,553433
19368,552523
19372,552831
19374,552923
19376,554150
19379,553171
19381,553826
19383,553356
19386,554470
19388,553436
19390,554060
19393,553519
19395,554533
19397,553444
19400,554106
19402,553477
19404,553332
19407,553289
19409,553871
19411,553234
19415,553085
19417,554161
19419,553029
19422,552835
19424,552718
19426,553722
19429,552541
19431,553201
19433,552300
19435,553295
19438,552163
19440,552773
19442,552030
19445,552917
19447,551782
19449,552391
19452,551620
19454,551569
19457,551400
19460,552058
19462,551330
19464,551303
19467,552334
19469,551243
19471,551197
19474,551193
19476,552213
19478,551095
19481,551838
19483,551217
19485,552273
19488,551209
19490,551938
19492,551347
19495,552511
19497,551477
19500,552253
19503,551632
19505,551858
19507,551839
19510,552648
19512,552046
19514,552393
19517,553142
19519,552280
19521,552581
19523,553030
19526,553604
19528,552850
19530,553705
19533,553684
19535,554131
19537,553363
19540,554262
19543,553811
19545,554774
19548,554123
19550,554991
19552,554549
19555,555186
19557,555374
19559,555803
19562,555308
19564,556085
19566,556118
19569,555530
19571,556036
19573,556881
19576,556812
19578,556314
19580,557318
19584,557743
19586,557556
19588,557101
19591,558166
19593,557651
19595,558337
19598,557938
19600,558956
19602,558509
19605,559466
19607,559135
19609,559758
19611,559224
19614,560192
19616,559824
19618,559451
19621,559952
19623,561018
19625,560481
19629,560123
19631,561200
19633,561754
19636,561214
19638,560846
19640,561877
19643,561398
19645,561858
19647,561455
19650,562527
19652,561916
19654,562982
19657,562433
19659,563042
19661,562562
19664,563596
19666,562956
19668,562628
19672,563056
19674,564142
19676,563569
19679,563150
19681,564175
19683,564707
19686,564042
19688,563631
19690,564745
19693,564125
19695,564560
19697,564135
19699,565099
19702,564579
19704,565703
19706,565009
19709,565640
19712,565106
19714,566197
19717,565558
19719,565142
19721,565634
19724,566718
19726,566036
19728,565668
19731,566699
19733,567287
19735,566703
19738,566345
19740,567343
19742,566823
19745,567255
19747,567000
19749,567915
19752,567408
19755,568516
19757,567870
19760,568371
19762,567824
19764,568919
19767,568193
19769,568057
19771,567954
19774,568926
19776,568037
19778,567740
19780,567823
19783,567834
19785,566602
19787,566207
19790,565809
19792,564919
19794,563971
19798,563364
19800,562662
19802,561609
19805,561964
19807,560440
19809,558833
19812,557783
19814,558129
19816,556639
19819,555998
19821,553975
19823,554319
19826,552826
19828,552369
19830,551315
19833,550876
19835,549491
19837,549246
19841,548088
19843,547386
19845,547953
19848,546462
19850,545343
19852,544828
19855,545526
19857,544333
19859,543261
19862,542857
19864,543643
19866,542588
19868,542756
19871,541408
19873,542323
19875,541393
19878,541684
19880,540682
19883,541564
19886,540752
19888,541144
19890,540211
19893,540118
19895,541195
19897,540907
19900,540051
19902,540039
19904,541186
19907,540551
19909,540208
19911,540313
19914,541506
19916,540860
19918,541481
19921,540773
19923,542020
19926,541449
19929,542038
19931,541279
19933,542697
19936,542065
19938,542755
19940,541969
19943,542121
19945,543424
19947,543474
19950,542767
19952,542840
19954,544160
19956,543520
19959,543489
19961,543606
19963,544897
19966,544286
19969,544938
19971,544400
19974,545618
19976,545003
19978,545688
19981,544871
19983,546338
19985,545781
19988,546450
19990,545656
19992,545833
19995,547156
19997,547259
19999,546468
20002,546727
20004,547894
20006,547356
20009,547391
20012,547743
20014,548869
20017,548292
20019,549081
20021,548810
20024,549697
20026,549252
20028,550027
20031,549228
20033,550380
20035,549930
20038,550690
20040,549897
20042,550504
20044,551026
20047,551318
20049,550473
20051,551065
20055,551358
20057,550954
20059,550838
20062,551402
20064,551579
20066,551214
20069,551871
20071,551633
20073,551600
20076,551219
20078,551907
20080,550929
20083,551501
20085,551109
20087,551746
20090,550727
20092,551475
20094,551204
20098,551528
20100,550558
20102,551262
20105,550925
20107,550562
20109,550303
20112,551128
20114,550592
20116,550319
20119,551026
20121,550863
20123,550343
20126,550075
20128,550764
20130,549802
20132,550702
20135,549928
20137,550631
20140,549740
20143,550694
20145,550106
20147,550697
20150,549799
20152,550721
20154,550209
20157,550041
20159,549982
20161,550980
20164,550445
20166,550273
20168,551037
20171,551282
20173,550749
20175,550609
20178,551444
20180,550603
20183,551681
20186,551114
20188,551956
20190,551141
20193,552222
20195,551667
20197,552540
20200,551755
20202,552851
20204,552321
20207,552350
20209,552381
20211,553550
20214,552964
20216,552996
20218,553874
20220,554262
20224,553740
20226,553714
20228,554629
20231,553866
20233,555019
20235,554503
20238,555419
20240,554643
20242,555835
20245,555363
20247,556250
20249,555488
20252,556643
20254,556154
20256,556251
20259,556284
20261,557439
20263,556955
20267,557147
20269,557869
20271,558328
20274,557824
20276,558077
20278,558588
20281,557894
20283,559125
20285,558997
20288,559352
20290,558739
20292,559959
20295,559382
20297,559971
20299,559387
20302,560622
20304,560137
20306,560615
20308,560089
20312,561388
20314,560832
20316,561363
20319,561200
20321,561975
20323,561439
20326,562021
20328,561791
20330,561336
20333,562585
20335,562702
20337,562316
20340,561881
20342,563216
20344,562657
20347,562845
20349,562502
20352,563779
20355,563194
20357,563916
20359,562978
20362,564292
20364,563721
20366,564489
20369,563841
20371,564828
20373,564281
20376,565049
20378,564280
20380,563996
20383,565373
20385,565656
20387,564791
20389,564550
20392,565860
20395,565307
20397,565398
20400,565124
20402,566435
20404,565904
20407,566825
20409,565720
20411,567087
20414,566583
20416,567516
20418,566620
20421,566418
20423,567226
20425,568169
20428,567227
20430,566972
20432,568344
20435,568700
20438,567728
20440,567414
20443,568706
20445,567998
20447,567632
20450,567240
20452,568279
20454,567363
20457,567948
20459,565892
20461,566645
20464,565454
20466,565716
20468,564115
20471,563134
20473,562279
20475,562411
20477,560573
20481,559499
20483,559945
20485,558581
20488,556773
20490,555760
20492,556162
20495,554772
20497,553061
20499,552114
20502,552596
20504,551293
20506,551526
20509,548887
20511,549420
20513,548176
20516,548476
20518,546862
20520,546189
20524,545593
20526,545986
20528,544475
20531,544034
20533,544430
20535,544027
20538,542665
20540,542389
20542,542851
20545,541996
20547,541410
20549,541369
20552,541695
20554,541051
20556,541832
20559,540742
20561,540995
20563,540568
20566,541480
20569,540369
20571,540594
20573,540452
20576,541419
20578,540443
20580,540800
20583,540938
20585,541741
20587,540792
20590,541247
20592,541326
20594,541168
20597,541318
20599,541859
20601,541858
20604,541777
20606,542968
20609,542658
20612,542594
20614,542508
20616,543640
20619,542771
20621,543453
20623,543300
20626,544389
20628,543595
20630,544295
20633,544100
20635,545247
20637,544419
20640,545171
20642,544859
20644,544943
20647,545216
20649,546035
20652,545643
20654,545742
20657,546884
20659,546791
20661,546409
20664,546498
20666,547646
20668,546831
20671,547649
20673,547440
20675,548591
20678,547791
20680,548695
20682,548308
20685,549623
20687,548837
20689,549675
20692,549318
20695,549469
20697,549830
20700,550695
20702,550313
20704,550440
20707,551581
20709,550688
20711,551104
20714,551182
20716,552299
20718,551477
20721,552200
20723,551758
20725,552844
20728,551898
20730,552664
20732,552086
20736,553068
20738,552115
20740,552800
20742,552199
20745,552231
20747,552133
20749,552784
20752,552133
20754,552114
20756,553034
20759,551906
20761,551966
20763,551923
20766,552762
20768,551634
20770,552303
20773,551613
20775,552373
20777,551287
20781,551930
20783,551226
20785,551959
20788,550960
20790,551587
20792,550937
20795,551115
20797,550519
20799,551246
20802,550606
20804,550972
20806,551255
20809,550369
20811,550473
20813,550828
20816,551025
20818,550194
20820,550960
20824,550906
20826,550931
20828,550269
20830,551125
20833,550565
20835,551053
20837,550394
20840,551312
20842,550747
20844,551480
20847,550732
20849,551634
20851,551123
20854,551918
20856,551608
20858,551148
20861,551674
20864,552483
20866,552147
20869,551767
20871,552748
20873,553155
20876,552727
20878,552384
20880,553381
20883,552921
20885,553368
20887,552998
20890,554077
20892,553665
20894,554613
20897,553794
20899,554850
20901,554448
20904,555515
20907,554900
20909,554600
20912,555277
20914,556291
20916,555738
20918,555453
20921,556541
20923,557247
20925,556618
20928,556295
20930,557427
20932,557039
20935,557449
20937,557217
20939,558277
20942,557848
20944,559005
20946,558350
20950,559213
20952,558784
20954,559886
20957,559215
20959,558938
20961,559556
20964,560615
20966,559984
20968,559730
20971,560771
20973,561450
20975,560765
20978,560509
20980,561556
20982,561036
20985,561495
20987,561203
20989,562222
20993,561797
20995,562892
20997,562179
20999,562908
21002,562442
21004,563548
21006,562780
21009,562563
21011,562981
21013,564127
21016,563375
21018,563103
21020,564089
21023,564646
21025,563916
21027,563720
21030,564567
21032,564113
21035,564405
21038,564364
21040,565060
21042,564625
21045,565747
21047,564969
21049,565466
21052,565159
21054,566283
21056,565463
21059,565547
21061,565662
21063,566851
21066,566043
21068,566196
21070,566465
21073,567432
21075,566663
21078,566936
21081,567061
21083,566881
21085,567411
21087,567735
21090,567710
21092,567618
21094,568865
21097,568075
21099,568312
21101,568212
21104,569407
21106,568684
21108,569024
21111,568548
21113,569683
21115,568753
21118,569096
21121,568443
21123,569122
21126,567897
21128,567978
21130,566966
21133,566435
21135,565662
21137,565550
21140,564172
21142,563370
21144,563845
21147,562228
21149,560402
21151,559577
21154,559945
21156,558264
21158,558013
21161,555669
21164,556074
21166,554459
21169,554271
21171,552743
21173,552519
21175,550975
21178,550885
21180,549405
21182,548850
21185,547973
21187,548038
21189,546665
21192,546217
21194,546901
21196,545576
21199,544499
21201,544090
21203,544897
21207,543724
21209,544012
21211,542615
21214,543478
21216,542405
21218,542797
21221,541788
21223,542625
21225,541633
21228,542149
21230,541222
21232,541137
21235,541367
21237,541933
21239,541070
21242,541117
21244,542240
21246,541338
21250,541209
21252,541332
21254,542550
21257,541789
21259,542511
21261,541879
21263,543101
21266,542365
21268,543140
21270,542384
21273,543886
21275,543144
21277,543961
21280,543178
21282,543531
21284,544679
21287,544818
21289,544134
21292,544543
21295,545594
21297,544962
21299,545082
21302,545566
21304,546466
21306,545878
21309,546734
21311,546601
21313,547383
21316,546863
21318,547697
21320,547003
21323,548307
21325,547800
21327,548738
21330,548025
21332,548811
21335,549255
21338,549830
21340,549142
21342,549980
21345,550352
21347,550070
21349,550320
21351,551270
21354,551498
21356,551189
21358,552234
21361,552531
21363,552629
21365,552417
21368,553325
21370,552627
21372,553606
21376,553297
21378,554284
21380,553569
21383,554534
21385,554315
21387,554972
21390,554126
21392,555137
21394,554847
21397,554490
21399,554534
21401,555399
21404,554891
21406,554537
21408,555340
21411,555369
21413,554778
21415,554369
21419,555165
21421,554176
21423,554463
21426,554079
21428,554811
21430,553808
21433,554732
21435,554023
21437,554315
21439,553341
21442,554273
21444,553596
21446,553130
21449,552770
21451,553724
21453,553040
21456,552604
21458,553309
21460,553281
21464,552553
21466,552110
21468,552975
21471,551966
21473,552212
21475,551821
21478,552618
21480,551682
21482,552661
21485,551943
21487,552504
21498,552517
21498,551599
21500,551599
21502,552746
21505,552071
21507,551808
21509,552656
21511,551876
21513,552930
21515,552374
21517,552165
21519,553034
21521,552207
21522,553357
21524,552771
21526,552618
21528,553437
21530,552675
21532,553887
21534,553356
21537,553993
21539,553206
21541,554491
21544,553891
21547,553920
21549,553904
21552,555148
21554,554651
21556,554779
21559,555304
21561,555936
21563,555437
21566,555617
21568,556041
21570,555427
21573,556781
21575,556559
21577,556802
21580,556265
21582,557614
21584,557135
21587,557587
21590,557172
21592,558504
21595,558017
21597,558426
21599,558033
21602,559368
21604,558885
21606,559356
21608,559233
21611,560253
21613,559726
21615,560324
21618,560034
21620,559708
21622,561098
21625,561265
21627,560869
21629,560589
21633,561981
21635,561519
21637,561658
21640,561395
21642,562772
21644,562254
21647,562931
21649,562118
21651,563415
21654,562923
21656,563649
21658,562991
21661,564141
21663,563626
21665,564357
21668,563654
21670,563411
21672,564773
21676,565008
21678,564276
21680,564018
21683,565402
21685,564907
21687,564797
21690,564578
21692,565974
21694,565510
21696,566176
21699,565155
21701,566566
21703,566014
21706,566718
21708,565922
21710,567145
21713,566642
21715,567388
21718,566514
21721,566305
21723,567728
21725,567997
21728,567182
21730,567040
21732,568427
21735,567938
21737,567868
21739,567707
21742,569124
21744,568610
21746,569424
21749,568411
21751,569758
21753,569188
21756,569929
21758,569054
21761,570089
21764,569430
21766,570054
21768,569056
21771,568631
21773,569706
21775,569202
21778,567830
21780,567206
21782,568018
21784,566844
21787,565368
21789,564537
21791,564973
21794,563574
21796,563499
21798,560793
21801,561050
21804,559676
21806,559528
21809,557730
21811,556991
21813,555766
21816,555742
21818,554024
21820,553393
21823,553393
21825,552266
21827,550682
21830,550206
21832,550138
21834,549094
21837,547777
21839,547505
21841,547349
21844,546533
21847,546823
21849,545343
21852,545238
21854,544510
21856,544913
21859,543685
21861,543771
21863,543097
21866,543598
21868,542419
21870,542693
21872,542539
21875,542806
21877,541763
21879,542167
21882,541965
21884,541668
21886,541459
21890,541976
21892,541815
21894,541555
21897,542451
21899,542148
21901,542021
21904,541906
21906,542756
21908,541876
21911,542612
21913,542389
21915,543297
21918,542500
21920,543265
21922,542997
21925,544016
21927,543287
21929,544085
21933,543829
21935,543939
21937,544120
21940,545030
21942,544687
21944,544823
21947,545803
21949,545902
21951,545676
21954,545748
21956,546789
21958,546077
21960,546914
21963,546759
21965,547763
21967,547047
21970,547951
21972,547620
21975,548818
21978,548095
21980,549022
21982,548735
21985,548889
21987,549187
21989,550143
21992,549854
21994,550021
21996,551029
21999,551361
22001,551074
22003,551272
22006,552275
22008,551608
22010,552542
22013,552433
22016,553395
22018,552692
22021,553654
22023,553342
22025,554392
22028,553705
22030,554545
22032,554192
22035,554351
22037,554401
22039,555207
22042,554757
22044,554928
22046,555636
22048,555544
22051,555035
22053,555139
22055,555686
22059,554794
22061,555546
22063,555172
22066,555522
22068,554614
22070,555371
22073,554766
22075,555179
22077,554316
22080,555085
22082,554469
22084,554775
22087,553977
22089,554639
22091,554000
22094,554406
22096,554201
22098,553449
22102,553554
22104,553991
22106,553718
22109,552984
22111,553753
22113,553661
22116,553274
22118,552641
22120,553443
22123,552903
22125,552958
22127,552378
22130,553248
22132,552715
22134,553430
22136,552306
22139,553176
22141,552665
22144,553413
22147,552762
22149,552351
22151,552778
22154,553636
22156,552927
22158,552547
22161,553499
22163,553991
22165,553208
22168,552886
22170,553895
22172,553494
22175,553672
22177,553331
22179,554436
22182,554039
22184,555015
22187,553888
22190,555049
22192,554689
22194,555676
22197,554867
22199,554625
22201,555398
22204,556409
22206,555551
22208,555375
22211,556514
22213,557267
22215,556414
22217,556281
22220,557404
22222,557047
22224,557329
22227,557141
22230,558317
22232,557921
22235,559072
22237,558102
22239,559241
22242,558873
22244,559985
22246,559179
22249,558987
22251,559761
22253,560937
22256,560068
22258,559953
22260,561075
22263,561871
22265,560995
22267,560895
22270,561923
22273,561586
22275,561819
22278,561742
22280,562784
22282,562457
22285,563591
22287,562581
22289,563680
22292,563248
22294,564457
22296,563533
22299,563403
22301,564026
22303,565238
22305,564223
22308,564161
22310,565113
22312,565914
22316,564978
22318,565072
22320,565773
22323,565452
22325,565592
22327,565761
22330,566297
22332,566026
22334,567186
22337,566429
22339,566827
22341,566636
22344,567808
22346,566795
22348,567106
22351,567181
22353,568362
22355,567385
22359,567706
22361,567820
22363,568893
22366,567949
22368,568360
22370,568355
22373,568275
22375,568593
22377,569046
22380,568920
22382,568891
22384,570113
22387,569141
22389,569454
22391,569435
22393,570673
22396,569791
22398,570390
22401,570166
22404,571398
22406,570413
22408,571128
22411,570695
22413,572012
22415,571051
22418,571759
22420,571151
22422,571225
22425,571329
22427,571996
22429,571185
22432,571086
22434,572091
22436,570769
22439,570047
22441,569646
22444,570384
22447,568732
22449,568841
22451,566648
22454,567077
22456,565181
22458,564973
22461,563323
22463,562735
22465,560832
22468,560544
22470,558844
22472,558002
22475,556404
22477,556272
22479,554714
22481,553924
22484,554275
22487,552466
22489,550945
22492,550272
22494,550785
22496,549109
22499,549110
22501,547147
22503,547788
22506,546177
22508,546384
22510,545114
22513,545410
22515,543906
22517,544233
22520,543133
22522,542894
22524,542316
22528,542747
22530,541627
22532,541498
22535,542421
22537,541128
22539,540785
22542,540715
22544,541701
22546,540592
22549,541175
22551,540381
22553,541472
22556,540345
22558,541065
22560,540201
22563,541446
22565,540440
22567,541239
22569,540496
22573,540851
22575,540864
22577,541692
22580,540994
22582,541507
22584,542229
22587,541429
22589,541707
22591,542323
22594,542947
22596,542224
22598,543168
22601,543204
22603,543652
22605,542980
22608,543949
22610,543347
22612,544414
22616,543855
22618,544841
22620,544148
22623,544983
22625,544653
22627,545648
22630,545033
22632,545953
22634,546025
22637,545492
22639,545922
22641,546831
22644,546784
22646,546403
22648,547404
22651,547802
22653,547744
22656,547299
22658,548378
22661,547772
22663,548693
22665,548365
22668,549412
22670,548854
22672,550018
22675,549747
22677,550501
22679,549955
22682,551108
22684,550745
22686,550423
22689,550889
22691,551989
22693,551588
22696,551272
22699,552310
22701,552737
22704,552261
22706,551922
22708,552911
22711,552228
22713,552748
22715,552315
22718,553227
22720,552503
22722,553559
22725,552888
22727,553333
22729,552509
22732,553545
22734,552923
22736,552368
22739,552435
22742,553407
22744,552730
22746,552145
22749,552942
22751,553124
22753,552399
22756,551790
22758,552712
22760,551870
22763,552014
22765,551575
22767,552361
22770,551521
22772,552496
22774,551715
22777,552052
22779,551215
22781,552186
22785,551480
22787,550970
22789,550968
22792,552057
22794,551275
22796,550818
22799,551637
22801,551932
22803,551213
22806,550824
22808,551676
22810,550876
22813,551328
22815,551070
22817,551806
22820,551120
22822,552249
22824,551600
22827,552058
22830,551479
22832,552586
22834,551980
22837,551931
22839,551829
22841,553037
22844,552442
22846,552490
22848,552804
22851,553589
22853,553036
22855,553159
22858,553364
22860,552957
22862,553718
22865,553899
22867,554029
22870,553689
22873,555002
22875,554448
22877,554736
22880,554487
22882,555808
22884,555293
22887,555648
22889,555327
22891,556662
22894,556223
22896,556667
22898,556336
22901,557590
22903,557102
22905,557508
22908,557225
22910,557084
22913,557970
22916,558546
22918,558081
22920,558012
22922,559386
22925,558938
22927,558953
22929,558986
22932,560335
22934,559832
22936,560491
22939,559898
22941,561295
22943,560752
22946,561375
22948,560732
22950,562113
22953,561595
22956,562250
22958,561550
22961,561643
22963,562996
22965,563090
22968,562400
22970,562383
22972,563718
22975,563237
22977,563068
22979,563090
22982,564526
22984,563944
22986,564627
22989,563799
22991,565176
22993,564653
22996,565294
22999,564519
23001,565881
23003,565233
23006,565952
23008,565146
23010,565197
23013,566535
23015,566588
23017,565792
23020,565766
23022,567108
23024,566547
23027,566461
23029,566434
23031,567784
23034,567147
23036,567892
23038,567108
23042,568413
23044,567857
23046,568475
23049,567721
23051,569104
23053,568516
23056,569235
23058,568389
23060,568497
23063,569770
23065,569968
23067,569127
23070,569268
23072,570546
23074,569950
23077,569868
23079,570060
23081,571124
23085,570561
23087,571190
23089,570617
23091,571355
23094,570879
23096,571400
23098,570379
23101,570963
23103,570174
23105,570590
23108,569235
23110,569168
23112,569098
23115,568103
23117,566505
23119,566180
23122,565662
23124,564408
23127,562390
23130,562014
23132,561279
23134,560023
23137,559798
23139,557624
23141,556763
23144,555652
23146,555558
23148,553782
23151,552781
23153,551772
23155,551716
23158,550085
23160,550166
23162,549267
23165,548474
23168,546957
23170,547152
23173,546286
23175,545583
23177,544466
23179,544806
23182,543994
23184,543419
23186,543759
23189,542983
23191,542293
23193,541810
23196,542292
23198,541128
23200,541786
23203,540789
23205,541359
23207,540365
23211,541098
23213,540508
23215,540959
23218,539963
23220,540805
23222,540296
23225,540115
23227,540045
23229,540967
23232,540449
23234,540392
23236,541235
23239,541415
23241,540959
23243,540958
23246,541817
23248,541057
23250,542052
23254,541671
23256,542584
23258,541823
23261,542853
23263,542508
23265,543419
23267,542678
23270,543827
23272,543343
23274,543426
23277,543581
23279,544757
23281,544371
23284,544460
23286,545348
23288,545746
23291,545310
23293,545410
23296,546264
23299,545515
23301,546689
23303,546375
23306,547265
23308,546549
23310,547648
23313,547228
23315,548289
23317,547605
23320,548773
23322,548329
23324,548572
23327,548755
23329,549934
23331,549490
23334,549828
23336,550508
23339,551103
23342,550681
23344,551060
23346,551585
23349,550960
23351,552198
23353,552212
23355,552547
23358,551943
23360,553176
23362,552652
23365,553332
23367,552764
23369,553941
23372,553409
23374,553850
23376,553206
23379,554251
23382,553671
23384,554224
23387,553879
23389,554371
23391,553675
23394,554222
23396,553772
23398,553180
23401,554237
23403,554062
23405,553493
23408,552855
23410,553899
23412,553176
23415,552968
23417,552467
23419,553469
23422,552698
23425,553285
23427,551938
23430,552985
23432,552240
23434,552868
23436,551920
23439,552547
23441,551841
23443,552497
23446,551503
23448,551067
23450,552147
23453,552182
23455,551201
23457,550771
23460,551955
23462,551334
23464,551008
23468,550664
23470,551874
23472,551165
23475,551986
23477,550715
23479,551924
23482,551273
23484,552187
23486,551197
23489,552139
23491,551555
23493,552509
23496,551560
23498,551255
23500,552490
23503,552935
23505,551969
23507,551750
23511,553090
23513,552539
23515,552613
23518,552398
23520,553699
23522,553152
23524,554194
23527,553134
23529,554401
23531,553903
23534,554917
23536,554037
23538,553838
23541,554707
23543,555778
23545,554876
23548,554781
23550,556113
23553,556647
23556,555790
23558,555679
23560,557034
23563,556545
23565,556688
23567,556586
23570,557878
23572,557436
23574,558564
23577,557632
23579,558859
23581,558419
23584,559617
23586,558709
23588,558669
23591,559336
23593,560486
23596,559562
23599,559708
23601,560652
23603,561386
23606,560537
23608,560702
23610,561513
23612,561195
23615,561362
23617,561650
23619,562206
23622,561942
23624,563026
23626,562543
23629,563020
23631,562848
23633,563993
23636,563035
23639,563431
23641,563571
23644,564711
23646,563763
23648,564190
23651,564396
23653,565346
23655,564360
23658,564914
23660,564934
23662,564764
23665,565008
23667,565578
23669,565515
23672,565468
23674,566605
23676,566329
23680,566140
23682,566112
23684,567287
23687,566384
23689,566989
23691,566799
23694,567953
23696,567003
23698,567688
23700,567400
23703,568548
23705,567609
23707,568398
23710,567998
23712,568087
23714,568314
23717,569130
23719,568667
23721,568740
23725,569958
23727,569865
23729,569506
23732,569565
23734,570752
23736,569821
23739,570609
23741,570185
23743,571359
23746,570430
23748,571141
23750,570567
23753,571596
23755,570488
23757,571081
23760,570301
23762,570086
23764,569445
23768,569831
23770,568715
23772,568137
23775,568602
23777,566885
23779,565585
23782,564696
23784,564903
23786,562968
23788,562792
23791,560328
23793,560452
23795,558531
23798,558327
23800,556900
23802,556210
23805,554358
23808,554312
23810,552935
23813,552177
23815,550766
23817,550816
23820,549555
23822,548956
23824,549320
23827,547708
23829,546746
23831,546341
23834,546784
23836,545236
23838,545551
23841,544278
23843,544729
23845,543412
23848,543802
23851,542937
23853,543285
23856,542141
23858,542669
23860,541876
23863,541975
23865,541327
23867,542008
23870,541291
23872,541615
23874,541875
23876,541015
23879,541109
23881,541611
23883,541779
23886,541093
23888,541871
23890,541967
23894,542106
23896,541464
23898,542367
23901,541917
23903,542594
23905,542064
23908,543070
23910,542651
23912,543398
23915,542909
23917,543935
23919,543518
23922,544394
23924,544228
23926,543821
23929,544507
23931,545473
23933,545234
23937,544873
23939,545967
23941,546534
23944,546300
23946,545983
23948,547062
23951,546683
23953,547371
23955,547093
23958,548196
23960,547845
23962,548948
23964,548345
23967,549473
23969,549110
23971,550275
23974,549814
23976,549581
23979,550455
23982,551536
23984,551106
23986,550936
23989,552080
23991,552941
23993,552504
23996,552250
23998,553424
24000,553109
24003,553707
24005,553507
24007,554544
24010,554170
24012,555338
24014,554425
24017,555530
24019,555117
24022,556181
24025,555537
24027,555184
24029,555685
24032,556679
24034,555955
24036,555514
24039,556435
24041,556806
24043,555957
24045,555453
24048,556292
24050,555672
24052,555740
24055,555177
24057,555954
24059,555236
24062,556074
24065,555228
24067,555389
24070,554628
24072,555535
24074,554600
24077,554055
24079,553991
24081,554841
24084,553841
24086,553414
24088,554066
24091,554179
24093,553240
24095,552798
24098,553377
24100,552727
24102,552696
24105,552408
24108,552833
24110,552266
24113,553163
24115,552314
24117,552417
24120,551877
24122,552887
24124,552054
24127,552001
24129,551740
24131,552801
24133,551971
24136,552125
24138,552188
24140,552907
24143,552112
24145,552251
24147,552251
24151,552029
24153,552441
24155,552662
24158,552577
24160,552374
24162,553552
24165,552838
24167,552964
24169,552832
24172,554106
24174,553403
24176,553836
24179,553520
24181,554716
24183,554014
24186,554502
24188,554157
24190,555469
24194,554856
24196,555361
24198,554921
24201,554983
24203,555645
24205,556286
24208,555722
24210,555790
24212,557180
24215,556528
24217,556576
24219,556739
24221,558051
24224,557438
24226,558040
24228,557641
24231,558945
24233,558384
24236,559071
24239,558383
24241,559823
24243,559261
24246,559962
24248,559237
24250,559406
24253,560174
24255,560902
24257,560142
24260,560274
24262,561621
24264,560983
24267,560992
24269,561164
24271,562496
24274,561846
24276,562603
24279,561992
24282,563299
24284,562557
24286,563323
24289,562556
24291,564091
24293,563377
24296,564138
24298,563384
24300,563525
24303,564099
24305,564862
24307,564059
24309,564210
24312,565502
24314,564760
24316,564709
24320,564880
24322,566124
24324,565434
24327,566155
24329,565585
24331,566830
24334,566118
24336,566860
24338,566058
24341,567490
24343,566766
24345,567526
24348,566733
24350,567048
24352,568196
24355,568286
24357,567506
24359,567931
24363,568928
24365,568279
24367,568285
24370,568745
24372,569542
24374,568976
24377,569817
24379,569496
24381,570059
24384,569447
24386,570127
24388,569166
24391,569944
24393,569185
24395,569683
24397,568528
24400,568832
24402,568646
24404,567885
24408,566465
24410,566443
24412,565821
24415,564618
24417,562807
24419,562673
24422,561768
24424,560459
24426,560290
24429,558408
24431,557410
24433,556157
24436,556078
24438,554360
24440,553396
24443,552197
24445,552251
24448,550667
24451,550847
24453,549866
24455,549021
24458,547509
24460,547867
24462,546927
24465,546053
24467,544980
24469,545420
24472,544516
24474,543831
24476,544250
24479,543566
24481,542717
24483,542164
24485,542631
24488,541587
24491,541497
24493,541000
24496,541708
24498,540620
24500,541472
24503,540817
24505,541148
24507,540199
24510,541110
24512,540508
24514,540242
24517,540193
24519,541174
24521,540549
24524,540407
24526,541259
24528,541559
24531,541037
24534,540920
24536,541796
24539,541091
24541,541684
24543,541597
24546,542571
24548,541824
24550,542997
24553,542502
24555,543392
24557,542704
24560,543957
24562,543471
24564,543418
24567,543765
24569,544938
24571,544513
24573,544483
24577,545506
24579,546031
24581,545626
24584,545577
24586,546598
24588,545942
24591,546779
24593,546762
24595,547789
24598,547066
24600,548346
24602,547935
24605,548934
24607,548337
24609,549663
24612,549287
24614,549435
24616,549675
24620,550989
24622,550602
24624,550905
24627,551494
24629,552381
24631,551989
24634,552395
24636,552769
24638,552313
24641,553661
24643,553648
24645,553859
24648,553408
24650,554708
24652,554256
24654,554720
24657,554233
24659,555557
24662,555049
24665,555402
24667,554774
24669,555945
24672,555326
24674,555703
24676,555328
24679,556024
24681,555295
24683,555692
24686,555150
24688,554627
24690,555767
24693,555393
24695,554794
24697,554241
24700,555331
24702,554535
24705,554149
24708,553609
24710,554716
24712,553991
24715,554417
24717,553020
24719,554143
24722,553402
24724,553873
24726,552969
24729,553599
24731,552844
24733,553392
24736,552418
24738,552009
24740,553204
24742,553043
24745,552067
24748,551695
24750,552920
24753,552266
24755,551932
24757,551564
24760,552813
24762,552155
24764,552878
24767,551588
24769,552904
24771,552284
24774,552974
24776,552037
24778,553108
24781,552532
24783,553275
24785,552446
24788,552195
24791,553513
24793,553726
24796,552881
24798,552711
24800,554081
24803,553475
24805,553456
24807,553330
24810,554690
24812,554098
24814,554969
24817,553983
24819,555397
24821,554930
24824,555762
24826,554935
24828,556211
24830,555712
24834,556606
24836,555807
24838,555731
24841,557084
24843,557449
24845,556738
24848,556649
24850,557986
24852,557545
24855,557621
24857,557615
24859,558884
24862,558458
24864,559338
24866,558660
24869,559765
24871,559379
24873,560247
24877,559408
24879,560651
24881,560228
24884,561211
24886,560368
24888,560575
24891,561435
24893,562069
24895,561248
24898,561592
24900,562240
24902,561997
24905,562131
24907,562534
24909,563048
24912,562830
24914,563801
24916,563396
24919,563705
24922,563614
24924,564522
24926,563730
24929,564242
24931,564309
24933,565310
24936,564448
24938,565002
24940,565159
24943,566028
24945,565201
24947,565832
24950,565800
24952,565713
24954,565885
24957,566567
24960,566426
24962,566393
24965,567424
24967,567262
24969,567125
24972,567033
24974,568089
24976,567256
24979,567990
24981,567679
24983,568679
24986,567891
24988,568725
24990,568370
24993,569443
24995,568641
24997,569457
25000,569087
25003,569185
