3001,598656
3002,598656
3004,598011
3006,597930
3008,598087
3009,597462
3011,598633
3013,597997
3015,598075
3017,598023
3019,597535
3021,598693
3023,598130
3025,598290
3027,598153
3030,597740
3032,598921
3034,598377
3036,598529
3038,598315
3040,597906
3042,599183
3044,598880
3046,598512
3049,598273
3051,599483
3053,598967
3055,599263
3057,598839
3059,598563
3062,599931
3064,599729
3066,599258
3068,599030
3070,600372
3073,599783
3075,600282
3078,599604
3080,599427
3082,600779
3084,600237
3086,600061
3088,599912
3091,601228
3093,600708
3095,601201
3097,600509
3099,600397
3101,601787
3104,601169
3106,600976
3108,600912
3110,602240
3112,601755
3115,602266
3117,601455
3120,601414
3122,602738
3124,602213
3126,602780
3128,601903
3130,603271
3133,602654
3135,603237
3137,602460
3139,602365
3141,603736
3143,603137
3146,603720
3148,602847
3150,604138
3152,603559
3154,604137
3156,603296
3159,603198
3162,604515
3164,603948
3166,604514
3168,603694
3170,604878
3172,604290
3175,604876
3177,604043
3179,603962
3181,605297
3183,604665
3185,605237
3188,604376
3190,605684
3192,605042
3194,605644
3196,604783
3198,604785
3201,605977
3204,605390
3206,605946
3208,605150
3210,605156
3212,605780
3214,606411
3217,605516
3219,605568
3221,606769
3223,606170
3225,606788
3227,605940
3230,606108
3232,606626
3234,607271
3236,606409
3238,606625
3240,607488
3243,607025
3246,607668
3248,606832
3250,607188
3252,607948
3254,608095
3256,607309
3259,607674
3261,608248
3263,607870
3265,608425
3267,607537
3269,607913
3272,608304
3274,608401
3276,607443
3278,607739
3280,607788
3282,607274
3286,607684
3288,606472
3290,606721
3292,606482
3294,605840
3296,604673
3298,604802
3301,604289
3303,603534
3305,603631
3307,602223
3309,602388
3311,601724
3314,600904
3316,599664
3318,599853
3320,599039
3322,598330
3324,598563
3328,597112
3330,597436
3332,596597
3334,595970
3336,596234
3338,595451
3340,594640
3343,594168
3345,594588
3347,593382
3349,593993
3351,593232
3353,592871
3356,593355
3358,592941
3360,592301
3362,592014
3364,592571
3366,591647
3369,592396
3372,591838
3374,591701
3376,592368
3378,591348
3380,591740
3382,591623
3385,592313
3387,591439
3389,592401
3391,591848
3393,591793
3395,592540
3398,591699
3400,592188
3402,592166
3404,592942
3406,592116
3408,593131
3411,592665
3414,592678
3416,593480
3418,592637
3420,593740
3422,593209
3424,594026
3427,593223
3429,594329
3431,593865
3433,593904
3435,594700
3437,593853
3440,594943
3442,594463
3444,595252
3446,594418
3448,595501
3450,595034
3453,595080
3456,595759
3458,594939
3460,596005
3462,595534
3464,596276
3466,595449
3469,596491
3471,595929
3473,596036
3475,596655
3477,595894
3479,596870
3482,596359
3484,597024
3486,596191
3488,597278
3490,596772
3492,597040
3495,597424
3497,596690
3500,597798
3502,597269
3504,597581
3506,597208
3508,598345
3511,597888
3513,598274
3515,598403
3517,597727
3519,598992
3521,598441
3524,598979
3526,598373
3528,599519
3530,598967
3532,599606
3534,599340
3537,598797
3539,599992
3542,599480
3544,600073
3546,599657
3548,600319
3550,599761
3553,600355
3555,599851
3557,599315
3559,600452
3561,599842
3563,600502
3566,599890
3568,599354
3570,599877
3572,600502
3574,599756
3576,599267
3579,600418
3581,599802
3584,600498
3586,599608
3588,599176
3590,599606
3592,600331
3595,599328
3597,598888
3599,600050
3601,599408
3603,600119
3605,599094
3608,598657
3610,599854
3612,599741
3614,598684
3616,598321
3618,599471
3621,598806
3623,599623
3625,598546
3628,598068
3630,599222
3632,599409
3635,598336
3637,598016
3639,599144
3641,598505
3643,599351
3645,598270
3647,597888
3650,599090
3652,598495
3654,598289
3656,597929
3658,599180
3660,598544
3663,599423
3665,598404
3667,598082
3670,599284
3672,598744
3674,598642
3677,598318
3679,599542
3681,598938
3683,599883
3685,598876
3687,598589
3689,599879
3692,599284
3694,600199
3696,598972
3698,600197
3700,599648
3702,600611
3705,599577
3707,599373
3709,600583
3712,600045
3714,600986
3716,599795
3719,601010
3721,600493
3723,601367
3725,600425
3727,600231
3729,601442
3731,600920
3734,601853
3736,600868
3738,601852
3740,601324
3742,602318
3744,601249
3747,601310
3749,602217
3751,601782
3753,602749
3756,601721
3758,602536
3761,602156
3763,603148
3765,602123
3767,602234
3769,602873
3771,602580
3773,603564
3776,602577
3778,602830
3780,602979
3782,603930
3784,602949
3786,603201
3789,603519
3791,603224
3793,604304
3795,603237
3798,603580
3800,603580
3803,604645
3805,603581
3807,604012
3809,604055
3811,603894
3813,604926
3815,603952
3818,604398
3820,604319
3822,605226
3824,604228
3826,604732
3828,604560
3831,604502
3833,605610
3835,604546
3837,605119
3840,604897
3842,605923
3845,604893
3847,605443
3849,605216
3851,605083
3853,606154
3855,605190
3857,605845
3860,605471
3862,605383
3864,605515
3866,606211
3868,605777
3870,605757
3873,606816
3875,605852
3877,606584
3879,606121
3881,606137
3884,606243
3887,606899
3889,606447
3891,606406
3893,607504
3895,606526
3897,607211
3899,606649
3902,606668
3904,607639
3906,607183
3908,606641
3910,606484
3912,607383
3915,606156
3917,606670
3919,605920
3921,605611
3923,606365
3926,605383
3929,604434
3931,604009
3933,604586
3935,603135
3937,603302
3939,602264
3941,601818
3944,602276
3946,600711
3948,599863
3950,599354
3952,599837
3954,598271
3957,598493
3959,597449
3961,597000
3963,597512
3965,596037
3968,595319
3971,594946
3973,595546
3975,594161
3977,594550
3979,593670
3981,593401
3983,594061
3986,592756
3988,593260
3990,592469
3992,593114
3994,591929
3996,592549
3999,591836
4001,591926
4003,592488
4005,591425
4007,592134
4009,591805
4013,592229
4015,591289
4017,592057
4019,591485
4021,591900
4023,592199
4026,591409
4028,592183
4030,591669
4032,592437
4034,591688
4036,592520
4038,592062
4041,592668
4043,592751
4045,592143
4047,593034
4049,592610
4051,593221
4055,592608
4057,593523
4059,593107
4061,593846
4063,593742
4065,593191
4068,594079
4070,593690
4072,594543
4074,593795
4076,594703
4078,594276
4080,595130
4083,594741
4085,594327
4087,595259
4089,594845
4091,595721
4093,594825
4097,595784
4099,595266
4101,596214
4103,595701
4105,595284
4107,596263
4110,595744
4112,596701
4114,596071
4116,596643
4118,596075
4120,597087
4122,596446
4125,596087
4127,596993
4129,596578
4131,597611
4133,596919
4135,597584
4139,597166
4141,598127
4143,597524
4145,597166
4147,598140
4149,597705
4152,598797
4154,598084
4156,597703
4158,598250
4160,599358
4162,598574
4164,598263
4167,599246
4169,598768
4171,599743
4173,599032
4175,598620
4177,599534
4180,599998
4183,599197
4185,598795
4187,599688
4189,599177
4191,600133
4194,599269
4196,598837
4198,599690
4200,600098
4202,599238
4204,598733
4206,599605
4209,599057
4211,599997
4213,599055
4215,598639
4217,599468
4219,598849
4222,598840
4225,598335
4227,599183
4229,598583
4231,599496
4233,598610
4236,598204
4238,598898
4240,598316
4242,598290
4244,597943
4246,598662
4248,598085
4251,598999
4253,598047
4255,597795
4257,598313
4259,597802
4261,598789
4264,597741
4267,598077
4269,597695
4271,598728
4273,597790
4275,597786
4278,598019
4280,597685
4282,598730
4284,597863
4286,598024
4288,597675
4290,598800
4293,597910
4295,598032
4297,598057
4299,597904
4301,599031
4303,598167
4306,598228
4308,598098
4311,599280
4313,598402
4315,598711
4317,598470
4320,598405
4322,599590
4324,598762
4326,598753
4328,598692
4330,599849
4332,599035
4335,599469
4337,599028
4339,598999
4341,600202
4343,599396
4345,599892
4348,599405
4350,600607
4353,599823
4355,600285
4357,599725
4359,599843
4362,601024
4364,600270
4366,600870
4368,600239
4370,601421
4372,600677
4374,601331
4377,600559
4379,600706
4381,601918
4383,601163
4385,601785
4387,600972
4390,602432
4392,601576
4395,602209
4397,601485
4399,601566
4401,602788
4404,601982
4406,602607
4408,601824
4410,603230
4412,602392
4414,602980
4417,602183
4419,602306
4421,603556
4423,602707
4425,603367
4427,602590
4429,602702
4432,603070
4434,603749
4436,602944
4439,603082
4441,604298
4443,603427
4446,604120
4448,603257
4450,603439
4452,603741
4454,604425
4456,603480
4459,603668
4461,604974
4463,604073
4465,604690
4467,603936
4469,604001
4471,605282
4474,604988
4476,604178
4478,604377
4481,605522
4483,604662
4485,605378
4488,604584
4490,604744
4492,605910
4494,605670
4496,604834
4498,605072
4501,606115
4503,605234
4505,605945
4507,605148
4509,605468
4511,606444
4513,605592
4516,605524
4518,605989
4520,606779
4523,605983
4525,606723
4527,605900
4530,606414
4532,607056
4534,606338
4536,606304
4538,606934
4540,607348
4543,606684
4545,607527
4547,606689
4549,607319
4551,607595
4553,606952
4555,607736
4558,607494
4560,607570
4562,606888
4564,607561
4567,606581
4569,607160
4572,606998
4574,606264
4576,606773
4578,606082
4580,605623
4582,604668
4585,605062
4587,603759
4589,604133
4591,603429
4593,602465
4595,602790
4597,601389
4600,600909
4602,599894
4604,600199
4606,598869
4609,599263
4611,598406
4614,597457
4616,597794
4618,596476
4620,596149
4622,595279
4624,595653
4627,594420
4629,595100
4631,594240
4633,593507
4635,594030
4637,592938
4639,593645
4642,592292
4644,592965
4646,591837
4648,592694
4651,592035
4653,591508
4656,592258
4658,591300
4660,592230
4662,591140
4664,591986
4666,591038
4669,592077
4671,591490
4673,591083
4675,591907
4677,591107
4679,592174
4681,591606
4684,592079
4686,591281
4688,592414
4690,591869
4692,591529
4695,592433
4698,591638
4700,592795
4702,592299
4704,592872
4706,592115
4708,593256
4711,592737
4713,592457
4715,593358
4717,592564
4719,593781
4721,593234
4723,592935
4726,593063
4728,594222
4730,593777
4732,593461
4734,594376
4737,593581
4740,594764
4742,594224
4744,593963
4746,594030
4748,595219
4750,594651
4753,594373
4755,595214
4757,594376
4759,595575
4761,594967
4763,594850
4766,595462
4768,595938
4770,595371
4772,595289
4774,595779
4776,595044
4779,596275
4782,595694
4784,595695
4786,596039
4788,595376
4790,596157
4792,596214
4795,596369
4797,595873
4799,597143
4801,596564
4803,596744
4805,596812
4808,596341
4810,597053
4812,597306
4814,597209
4816,596785
4818,598093
4820,597582
4824,597717
4826,597567
4828,597137
4830,598443
4832,598112
4834,597771
4837,597399
4839,598657
4841,598077
4843,598343
4845,597912
4847,597505
4850,598742
4852,598499
4854,597917
4856,597568
4858,598815
4860,598220
4862,598513
4866,597823
4868,597444
4870,598675
4872,598055
4874,597642
4876,597241
4879,598527
4881,597820
4883,598297
4885,597432
4887,597107
4889,598302
4892,597650
4894,597201
4896,596856
4898,598066
4900,597453
4902,597885
4904,596976
4908,596632
4910,597882
4912,597250
4914,597716
4916,596471
4918,597683
4921,597068
4923,597563
4925,596677
4927,596359
4929,597646
4931,597013
4934,597489
4936,596340
4938,597607
4940,597021
4942,597531
4944,596637
4946,596426
4950,597654
4952,597109
4954,597629
4956,596773
4958,597835
4960,597224
4963,597781
4965,596987
4967,596754
4969,598091
4971,597526
4973,598050
4976,597170
4978,598270
4980,597784
4982,598320
4984,597518
4986,597371
4988,598651
4992,598094
4994,598612
4996,597835
4998,597712
5000,598433
5002,599037
5005,598199
5007,598111
5009,599397
5011,598867
5013,599450
5015,598589
5018,598588
5020,599232
5022,599846
5024,599011
5026,599153
5028,600043
5030,599628
5033,600317
5036,599388
5038,599573
5040,600439
5042,600630
5044,599781
5047,600130
5049,600750
5051,600414
5053,601070
5055,600242
5057,600661
5060,601113
5062,601505
5064,600627
5066,601041
5068,601426
5070,601141
5073,601790
5075,600993
5078,601473
5080,601688
5082,601477
5084,601389
5086,601968
5089,602062
5091,601857
5093,602503
5095,601687
5097,602349
5099,602287
5102,602124
5104,602020
5106,602694
5108,602563
5110,602461
5112,603176
5114,602329
5117,603060
5120,602876
5122,602727
5124,603459
5126,603426
5128,603069
5131,603023
5133,603744
5135,602904
5137,603700
5139,603385
5141,603317
5144,604112
5146,604119
5148,603673
5150,603646
5152,604385
5154,603530
5157,604398
5159,604002
5161,603966
5164,604716
5166,603910
5168,604336
5170,604341
5173,605114
5175,604235
5177,605174
5179,604691
5181,604727
5183,605496
5186,604706
5188,605093
5190,605125
5192,605897
5194,605064
5196,606014
5199,605537
5201,605539
5203,606318
5206,605452
5208,606334
5210,605792
5212,606442
5215,605584
5217,606442
5219,605831
5221,605731
5223,606296
5225,605331
5228,606029
5230,605124
5232,605585
5234,604370
5236,604950
5238,604080
5241,603665
5243,603970
5245,602649
5248,603108
5250,602061
5252,601736
5254,600340
5257,600763
5259,599687
5261,599242
5263,599329
5265,597935
5267,598330
5270,597272
5272,596948
5274,595592
5276,596097
5278,595122
5280,594930
5283,594829
5285,593681
5287,594246
5289,593356
5292,593353
5294,592119
5296,592833
5299,592066
5301,592205
5303,591956
5305,591110
5307,591903
5309,591206
5312,591493
5314,590434
5316,591324
5318,590700
5320,591100
5322,590799
5325,590102
5327,591115
5329,590522
5331,591097
5334,590682
5336,591150
5338,590679
5341,591295
5343,590781
5345,590343
5347,591427
5349,590990
5351,591617
5354,591097
5356,590696
5358,591329
5360,592093
5362,591460
5364,591125
5367,592294
5369,591782
5371,592658
5373,591904
5376,591603
5378,592335
5380,593232
5383,592432
5385,592127
5387,593327
5389,592893
5391,593787
5393,592939
5396,592660
5398,593841
5400,594342
5402,593390
5404,593100
5406,594297
5409,593810
5411,594753
5413,593794
5415,593568
5417,594747
5420,595212
5422,594241
5425,593917
5427,595134
5429,594614
5431,595567
5433,594649
5435,594406
5438,595560
5440,595069
5442,595051
5444,594755
5446,596018
5448,595568
5451,596544
5453,595535
5455,595358
5457,596595
5459,596097
5462,596117
5464,595905
5467,597021
5469,596617
5471,597567
5473,596570
5475,596331
5477,597532
5480,596910
5482,597872
5484,596620
5486,597746
5488,597217
5490,598135
5493,597064
5495,596795
5497,597901
5499,597361
5501,598245
5504,596892
5506,598012
5509,597336
5511,598238
5513,597133
5515,596884
5517,597952
5519,597320
5522,598192
5524,597041
5526,597711
5528,597130
5530,597927
5532,596840
5535,596621
5537,597331
5539,596726
5541,597617
5543,596425
5545,597012
5549,596453
5551,597328
5553,596125
5555,596166
5557,596535
5559,596112
5561,597035
5564,595935
5566,595965
5568,595858
5570,596748
5572,595659
5574,595832
5577,595993
5579,595700
5581,596594
5583,595534
5585,595800
5587,595576
5591,596558
5593,595485
5595,595778
5597,595777
5599,595543
5601,596615
5603,595545
5606,595963
5608,595831
5610,596693
5612,595673
5614,596101
5616,595930
5619,595817
5621,596920
5623,595885
5625,596391
5627,596121
5629,597110
5633,596146
5635,596669
5637,596329
5639,596263
5641,597380
5643,596423
5645,597040
5648,596594
5650,596638
5652,596744
5654,597383
5656,597004
5658,597026
5661,598074
5663,597073
5665,597769
5667,597258
5669,597314
5671,597502
5675,598111
5677,597741
5679,597746
5681,598878
5683,597871
5685,598526
5687,598062
5690,598181
5692,599169
5694,598928
5696,598491
5698,598555
5700,599594
5703,598685
5705,599372
5707,598896
5709,598934
5711,600051
5713,599808
5716,599308
5719,599373
5721,600421
5723,599445
5725,600231
5727,599701
5729,599695
5732,600795
5734,599806
5736,599980
5738,600081
5740,601197
5742,600146
5745,600909
5747,600384
5749,600424
5751,601544
5753,600505
5755,600774
5758,600802
5761,601799
5763,600835
5765,601589
5767,600998
5769,601087
5771,602112
5774,601126
5776,601864
5778,601449
5780,602378
5782,601465
5784,602161
5787,601679
5789,601897
5791,602643
5793,601744
5795,602457
5797,602319
5800,602871
5803,601999
5805,602749
5807,602278
5809,602691
5811,603100
5813,602314
5816,603087
5818,602679
5820,603405
5822,602717
5824,603535
5826,603084
5829,603581
5831,603779
5833,602994
5835,603889
5837,603413
5839,604095
5842,603423
5844,604303
5847,603792
5849,604460
5851,604343
5853,603729
5855,604518
5858,604061
5860,604769
5862,603877
5864,604654
5866,604093
5868,604737
5871,604295
5873,603551
5875,604236
5877,603413
5879,604058
5881,602490
5884,602983
5886,602127
5889,602588
5891,601642
5893,600673
5895,601116
5898,600061
5900,600432
5902,599305
5904,598721
5906,597652
5908,598027
5910,596866
5913,595899
5915,596245
5917,595314
5919,595721
5921,594504
5923,594062
5926,593079
5928,593566
5931,592510
5933,591670
5935,592186
5937,591306
5940,591934
5942,590963
5944,590212
5946,590103
5948,590785
5950,589828
5952,589187
5955,589935
5957,589271
5959,590062
5961,589220
5963,588686
5965,589400
5968,589690
5970,588933
5972,588422
5975,589280
5977,588704
5979,589654
5982,588870
5984,588464
5986,589310
5988,589830
5990,589126
5992,588751
5994,589611
5997,589158
5999,590145
6001,589459
6003,589095
6005,590015
6007,589501
6010,589899
6012,589579
6014,590466
6017,589970
6019,591059
6021,590392
6024,590052
6026,590964
6028,590516
6030,590855
6032,590647
6034,591485
6036,591048
6039,592123
6041,591430
6043,591252
6045,591886
6047,591531
6049,592616
6052,591873
6054,592321
6056,591972
6059,593020
6061,592332
6063,592398
6066,592705
6068,592421
6070,593446
6072,592914
6074,593081
6076,592875
6078,593962
6081,593271
6083,593439
6085,593451
6087,593328
6089,594493
6091,593775
6094,593926
6096,593767
6098,594982
6100,594304
6103,594591
6105,594382
6108,594295
6110,595486
6112,594749
6114,594801
6116,594770
6118,595873
6120,595169
6123,595578
6125,595137
6127,595086
6129,596175
6131,595442
6133,595807
6136,595285
6138,596412
6140,595615
6142,595991
6145,595316
6147,595363
6150,596421
6152,595626
6154,596024
6156,595236
6158,596327
6160,595484
6162,595868
6165,595043
6167,595034
6169,596066
6171,595216
6173,595652
6175,594801
6178,595831
6180,594930
6182,595335
6184,594423
6187,594407
6189,595452
6192,594567
6194,594987
6196,594133
6198,595137
6200,594228
6202,594664
6204,593759
6207,593750
6209,594880
6211,594001
6213,594451
6215,593547
6217,593556
6220,593778
6222,594321
6224,593409
6226,593413
6228,594454
6231,593624
6234,594222
6236,593342
6238,593400
6240,593669
6242,594188
6244,593344
6246,593410
6249,594512
6251,593629
6253,594333
6255,593458
6257,593540
6259,594724
6262,594462
6264,593592
6266,593703
6268,594843
6270,594084
6273,594713
6276,593817
6278,593993
6280,595135
6282,595014
6284,594131
6286,594341
6289,595367
6291,594655
6293,595287
6295,594518
6297,594764
6299,595694
6301,594995
6304,594822
6306,595247
6308,596046
6310,595401
6312,596112
6315,595281
6318,595792
6320,596342
6322,595715
6324,595644
6326,596218
6328,596664
6331,596115
6333,596848
6335,596019
6337,596650
6339,596960
6341,596483
6343,597213
6346,597115
6348,597241
6350,596793
6352,597608
6354,596775
6356,597512
6360,597599
6362,597167
6364,597911
6366,597955
6368,597941
6370,597524
6373,598290
6375,597479
6377,598370
6379,598240
6381,597885
6383,598681
6385,597835
6388,598512
6390,598181
6392,598990
6394,598229
6396,599157
6398,598860
6402,598478
6404,599330
6406,598498
6408,599071
6410,598820
6412,599638
6415,598851
6417,599880
6419,599462
6421,599184
6423,599992
6425,599158
6427,600126
6430,599377
6432,600224
6434,599432
6436,600442
6438,599976
6440,599642
6444,600502
6446,599698
6448,600754
6450,599998
6452,600808
6454,599981
6457,601101
6459,600572
6461,600336
6463,601185
6465,600396
6467,601494
6469,600990
6472,601583
6474,600784
6476,601863
6478,601379
6480,601141
6482,601916
6486,601095
6488,602235
6490,601693
6492,602205
6494,601387
6496,602471
6499,601850
6501,601495
6503,602267
6505,601397
6507,602395
6509,601669
6511,601154
6514,600746
6516,601578
6518,600690
6520,600119
6522,600489
6524,599283
6528,599960
6530,598916
6532,598151
6534,597097
6536,597660
6538,596552
6541,595798
6543,595973
6545,594564
6547,595160
6549,594062
6551,593324
6553,593404
6556,592727
6558,591618
6560,591017
6562,590946
6564,589790
6566,590459
6569,589495
6572,589110
6574,588951
6576,587898
6578,587784
6580,587591
6583,587388
6585,586498
6587,587420
6589,586598
6591,586483
6593,586255
6595,585476
6598,585776
6600,585799
6602,585537
6604,584868
6606,585912
6608,585342
6611,585482
6614,585128
6616,584562
6618,585683
6620,585417
6622,584985
6625,584575
6627,585728
6629,585204
6631,585595
6633,585057
6635,584674
6637,585986
6640,585875
6642,585399
6644,585028
6646,586234
6648,585763
6650,586227
6653,585668
6656,585378
6658,586718
6660,586220
6662,586089
6664,585875
6667,587199
6669,586640
6671,587216
6673,586546
6675,586323
6677,587651
6680,587141
6682,586962
6684,586779
6686,588100
6688,587560
6690,588201
6692,587384
6695,587172
6697,588510
6700,588015
6702,588594
6704,587635
6706,588971
6709,588418
6711,589021
6713,588201
6715,587974
6717,589289
6719,588795
6722,589399
6724,588454
6726,589759
6728,589261
6730,589869
6732,589117
6734,588853
6737,590182
6739,589758
6742,590389
6744,589557
6746,590782
6748,590253
6751,590910
6753,590143
6755,589924
6757,591211
6759,590688
6761,591304
6764,590540
6766,591599
6768,591072
6770,591606
6772,590690
6774,590596
6776,591866
6779,591283
6781,591835
6784,590988
6786,590774
6788,591411
6790,591883
6793,590999
6795,590847
6797,591926
6799,591308
6801,591830
6803,590874
6806,590769
6808,591148
6810,591631
6812,590684
6814,590652
6816,591465
6818,590869
6821,591363
6823,590375
6825,590413
6828,591091
6830,591028
6832,590096
6835,590209
6837,590676
6839,590226
6841,590716
6843,589740
6845,589888
6848,590346
6850,590483
6852,589521
6854,589772
6856,590059
6858,589688
6860,590251
6863,589381
6865,589715
6867,589808
6870,589587
6872,589236
6874,589676
6877,589758
6879,589558
6881,590179
6883,589321
6885,589818
6887,589733
6890,589595
6892,589364
6894,589892
6896,589785
6898,589731
6900,590388
6902,589580
6905,590247
6907,590062
6909,589954
6912,590645
6914,590511
6916,590237
6919,590235
6921,590916
6923,590075
6925,590798
6927,590540
6929,590496
6932,591251
6934,591143
6936,590781
6938,590866
6940,591597
6942,590828
6944,591586
6947,591223
6949,591240
6951,592002
6953,591207
6956,591622
6958,591606
6961,592360
6963,591584
6965,592365
6967,591979
6969,591968
6971,592774
6974,592020
6976,592437
6978,592432
6980,593160
6982,592364
6984,593206
6986,592789
6989,592811
6991,593604
6993,592789
6995,593585
6998,593256
7000,593987
7003,593215
7005,593993
7007,593583
7009,593600
7011,594365
7013,593565
7016,594398
7018,594016
7020,594707
7022,593865
7024,594679
7026,594297
7029,594324
7031,595000
7033,594233
7035,595089
7037,594616
7040,595349
7042,594474
7045,595404
7047,594964
7049,595063
7051,595642
7053,594802
7055,595693
7058,595291
7060,595966
7062,595226
7064,596036
7066,595642
7068,595847
7071,596233
7073,595491
7075,596339
7077,595914
7079,596277
7081,595762
7084,596654
7087,596269
7089,596667
7091,596658
7093,596130
7095,597042
7097,596609
7100,597092
7102,596453
7104,597368
7106,596961
7108,597457
7110,597286
7113,596805
7115,597776
7117,597301
7119,597976
7121,597633
7123,598112
7126,597697
7129,598320
7131,597897
7133,597483
7135,598536
7137,598011
7139,598746
7142,598114
7144,598611
7146,598098
7148,598788
7150,598052
7152,597575
7155,598398
7157,597699
7159,598285
7161,597259
7163,596570
7165,596379
7168,596812
7171,595487
7173,594672
7175,595250
7177,594213
7179,594568
7181,593150
7184,592322
7186,592754
7188,591995
7190,590486
7192,589630
7194,590121
7197,589169
7199,589451
7201,587982
7203,587193
7205,587674
7207,587098
7209,585674
7213,584841
7215,585436
7217,584548
7219,585046
7221,583643
7223,583004
7226,583668
7228,582849
7230,582190
7232,581595
7234,582362
7236,581696
7239,582381
7241,581175
7243,580750
7245,581546
7247,580862
7249,580574
7251,580151
7255,581131
7257,580546
7259,581360
7261,580312
7263,579965
7265,581013
7268,580447
7270,581311
7272,579975
7274,581053
7276,580582
7278,581480
7281,580480
7283,580259
7285,581393
7287,580853
7289,581806
7291,580659
7293,581713
7297,581270
7299,582267
7301,581322
7303,581152
7305,582192
7307,581768
7310,582784
7312,581798
7314,582682
7316,582280
7318,583258
7320,582336
7323,582326
7325,583135
7327,582758
7329,583787
7331,582835
7333,583558
7335,583226
7339,584202
7341,583302
7343,583440
7345,583885
7347,583686
7349,584697
7352,583746
7354,583973
7356,584052
7358,585169
7360,584164
7362,584468
7365,584677
7367,584506
7369,585570
7371,584616
7373,584968
7375,585012
7377,586088
7380,585240
7383,585563
7385,585637
7387,585536
7389,586678
7391,585747
7394,586201
7396,586158
7398,587186
7400,586230
7402,586784
7404,586580
7407,586603
7409,587671
7411,586670
7413,587203
7425,587143
7425,587143
7426,587069
7428,587069
7430,588090
7432,587048
7434,587645
7435,587137
7437,587118
7439,588168
7441,587055
7443,587571
7445,587072
7447,587036
7449,588061
7451,586937
7453,587438
7455,586874
7457,586765
7459,587818
7461,586733
7463,587238
7465,586655
7468,586557
7470,587533
7472,586380
7474,586908
7476,586288
7478,586223
7480,587174
7482,586616
7484,586018
7486,585902
7488,586847
7491,585816
7493,586383
7495,585809
7497,585690
7499,586684
7501,586234
7504,585608
7506,585589
7508,586564
7511,585462
7513,586121
7515,585524
7517,585467
7520,586485
7522,585440
7524,585495
7526,585521
7528,586545
7530,585521
7533,586175
7535,585628
7537,585639
7539,586687
7541,585677
7543,585803
7546,585834
7548,586843
7550,585886
7553,586540
7555,585984
7557,586144
7559,587213
7562,586194
7564,586879
7566,586567
7568,587486
7570,586525
7572,587277
7575,586747
7577,587010
7579,587757
7581,586934
7583,587668
7585,587471
7588,588152
7590,587340
7592,588052
7595,587638
7597,588026
7599,588511
7601,587705
7604,588516
7606,588019
7608,588879
7610,588144
7612,588951
7614,588438
7617,589039
7619,589239
7621,588600
7623,589427
7625,588952
7627,589633
7630,589012
7632,589844
7634,589385
7636,590085
7639,589997
7641,589432
7643,590239
7646,589803
7648,590545
7650,589803
7652,590706
7654,590251
7656,591033
7659,590726
7661,590216
7663,591068
7665,590614
7667,591490
7669,590682
7672,591536
7674,591064
7676,591898
7678,591445
7681,591017
7683,591882
7685,591412
7688,592291
7690,591834
7692,592277
7694,591841
7696,592715
7698,592189
7701,591695
7703,592551
7705,592119
7707,593066
7709,592450
7711,592965
7714,592469
7716,593411
7718,592883
7720,592446
7723,593290
7725,592850
7727,593865
7730,593260
7732,592830
7734,593242
7736,594252
7738,593608
7740,593202
7743,594124
7745,593690
7747,594664
7749,593986
7751,593598
7753,594113
7756,595120
7758,594482
7760,594101
7762,594949
7764,594539
7767,595513
7769,594902
7772,594576
7774,595375
7776,595886
7778,595225
7780,594811
7782,595586
7785,595021
7787,595978
7789,595164
7791,594642
7793,595313
7795,594600
7798,594433
7800,593694
7802,594216
7804,593332
7806,593892
7809,592785
7812,591938
7814,592216
7816,591257
7818,590478
7820,589626
7822,589802
7824,588714
7827,589141
7829,587877
7831,587091
7833,587134
7835,586144
7837,586592
7840,584687
7842,584635
7844,583714
7846,584285
7848,583048
7851,582569
7854,582383
7856,581613
7858,582182
7860,580791
7862,580509
7864,579926
7866,580703
7869,579709
7871,579493
7873,579226
7875,578774
7877,579584
7879,578682
7882,578296
7884,577983
7886,578854
7888,578091
7890,578210
7892,577860
7896,577570
7898,578583
7900,577839
7902,577634
7904,577459
7906,578534
7908,577842
7911,578090
7913,577647
7915,577614
7917,578729
7919,578055
7921,578457
7924,577913
7926,579133
7928,578463
7930,578925
7932,578392
7934,578438
7938,579635
7940,578966
7942,579561
7944,578999
7946,580160
7948,579575
7950,580075
7953,579421
7955,579581
7957,580817
7959,580160
7961,580703
7963,580033
7966,581398
7968,580811
7970,581384
7972,580690
7974,580828
7976,582058
7980,581382
7982,582001
7984,581295
7986,582647
7988,582090
7990,582610
7992,581868
7995,582028
7997,583311
7999,582642
8001,583278
8003,582582
8005,582736
8008,583381
8010,584009
8012,583299
8014,583523
8016,584783
8018,584154
8022,584741
8024,584074
8026,584254
8028,584856
8030,585456
8032,584762
8034,584963
8037,586119
8039,585529
8041,586126
8043,585363
8045,585499
8047,586688
8050,586570
8052,585745
8054,585934
8056,587044
8058,586354
8060,586934
8064,586020
8066,586173
8068,587208
8070,586976
8072,586104
8074,586221
8077,587193
8079,586412
8081,586885
8083,585988
8085,586196
8087,586917
8089,586098
8092,585685
8094,585932
8096,586479
8098,585702
8100,586256
8102,585331
8105,585626
8108,586065
8110,585382
8112,584837
8114,585247
8116,585550
8118,584883
8121,585399
8123,584496
8125,584956
8127,585088
8129,584528
8131,585054
8134,584661
8136,584754
8138,584209
8140,584767
8142,583923
8144,584539
8147,584502
8150,584043
8152,584643
8154,584448
8156,584342
8158,583903
8161,584562
8163,583752
8165,584564
8167,584356
8169,583962
8171,584684
8173,583874
8176,584445
8178,584107
8180,584852
8182,584077
8184,584945
8186,584600
8189,584398
8192,585117
8194,584380
8196,584930
8198,584698
8200,585487
8203,584648
8205,585663
8207,585235
8209,585039
8211,585801
8213,585060
8215,586102
8218,585468
8220,586247
8222,585514
8224,586555
8226,586146
8228,585951
8231,586714
8233,585956
8236,587023
8238,586327
8240,587116
8242,586398
8245,587453
8247,587037
8249,586841
8251,587654
8253,586896
8255,587975
8257,587462
8260,588093
8262,587325
8264,588438
8266,587983
8268,587827
8270,588588
8273,587832
8275,588923
8278,588436
8280,589041
8282,588299
8284,589381
8287,588901
8289,588709
8291,589527
8293,588701
8295,589856
8297,589312
8299,589152
8302,589129
8304,590270
8306,589739
8308,589553
8310,590373
8312,589566
8315,590618
8317,590124
8320,589980
8322,589994
8324,591114
8326,590587
8329,590447
8331,591121
8333,590383
8335,591498
8337,591058
8339,591006
8341,591561
8344,591944
8346,591488
8348,591500
8350,591899
8352,591254
8354,592424
8357,591891
8359,592028
8361,592290
8364,591672
8366,592329
8368,592570
8371,592655
8373,592113
8375,593236
8377,592732
8379,592987
8381,592950
8383,592392
8386,592974
8388,593191
8390,592990
8392,592380
8394,593423
8396,592781
8399,592926
8401,592438
8403,591733
8406,592683
8408,591874
8410,591086
8413,590270
8415,591066
8417,590111
8419,590035
8421,589049
8423,588114
8425,588834
8428,587672
8430,586564
8432,585638
8434,586345
8436,585306
8438,585269
8441,584075
8443,583279
8445,583949
8448,582910
8450,581729
8452,580975
8455,581773
8457,580751
8459,580885
8461,579702
8463,579000
8465,579864
8467,578964
8470,578026
8472,577520
8474,578444
8476,577576
8478,577911
8480,576870
8483,576359
8485,577421
8487,576685
8489,577067
8492,575637
8494,576776
8497,576099
8499,576641
8501,575677
8503,575386
8505,576565
8507,575948
8509,576529
8512,575294
8514,576567
8516,575980
8518,576631
8520,575758
8522,575539
8525,576777
8527,576280
8529,576917
8531,576101
8534,577237
8536,576775
8539,577421
8541,576617
8543,576439
8545,577740
8547,577286
8549,577954
8552,577144
8554,578294
8556,577889
8558,578564
8560,577817
8562,577680
8564,578975
8567,578570
8569,579264
8571,578476
8573,578338
8576,579224
8578,579957
8581,579197
8583,579161
8585,580355
8587,579924
8589,580657
8591,579901
8594,579862
8596,580677
8598,581328
8600,580595
8602,580739
8604,581770
8606,581490
8609,582187
8611,581438
8613,581712
8615,582508
8617,583012
8620,582281
8623,582578
8625,583248
8627,583088
8629,583800
8631,583046
8633,583368
8636,583918
8638,584445
8640,583718
8642,584076
8644,584461
8646,584267
8648,584950
8651,584173
8653,584538
8655,584797
8657,584616
8659,584433
8662,584880
8665,584983
8667,584823
8669,585432
8671,584610
8673,584978
8675,584942
8678,584758
8680,584484
8682,584881
8684,584694
8686,584510
8688,585203
8690,584220
8693,584695
8695,584431
8697,584244
8699,584847
8701,584385
8704,584047
8707,583905
8709,584533
8711,583540
8713,584072
8715,583670
8717,583535
8720,584191
8722,583759
8724,583335
8726,583235
8728,583853
8730,582961
8732,583492
8735,583117
8737,583051
8739,583699
8741,582793
8743,583011
8745,582938
8749,583571
8751,582671
8753,583373
8755,582929
8757,582892
8759,583527
8762,582715
8764,582987
8766,582968
8768,583676
8770,582817
8772,583565
8774,583149
8777,583142
8779,583824
8781,583060
8783,583824
8785,583429
8787,584198
8791,583361
8793,584187
8795,583796
8797,583840
8799,584584
8801,583782
8804,584507
8806,584263
8808,584975
8810,584229
8812,585024
8814,584622
8816,584689
8819,585516
8821,584715
8823,585521
8825,585097
8827,585931
8829,585184
8833,586015
8835,585647
8837,585759
8839,586443
8841,585721
8843,586535
8846,586161
8848,586974
8850,586222
8852,587042
8854,586649
8856,586981
8858,587344
8861,586698
8863,587575
8865,587219
8867,587526
8869,587198
8871,588024
8875,587680
8877,588132
8879,588235
8881,587659
8883,588550
8885,588161
8888,588694
8890,588082
8892,589000
8894,588602
8896,589163
8898,589029
8900,588580
8903,589430
8905,589051
8907,589718
8909,589443
8911,589942
8913,589513
8916,590230
8919,589783
8921,589372
8923,590351
8925,589963
8927,590663
8930,590165
8932,590764
8934,590357
8936,591149
8938,590555
8940,590226
8943,591203
8945,590802
8947,591684
8949,591024
8951,590696
8953,591358
8955,592199
8958,591429
8961,591153
8963,592142
8965,591818
8967,592696
8969,591829
8972,591594
8974,592594
8976,593147
8978,592276
8980,592040
8982,592987
8985,592676
8987,593559
8989,592570
8991,592301
8993,593294
8995,593664
8997,592583
9000,592202
9003,593017
9005,592365
9007,592951
9009,591720
9011,591104
9014,591733
9016,590835
9018,589842
9020,589073
9022,589527
9024,588540
9027,588861
9029,587278
9031,586376
9033,586741
9035,585676
9037,584460
9039,583547
9042,583903
9044,582895
9047,583235
9049,581658
9051,580763
9053,581162
9056,580228
9058,580559
9060,578356
9062,578761
9064,577852
9066,578319
9069,576900
9071,576200
9073,576749
9075,575927
9077,576435
9079,574619
9081,575208
9084,574470
9086,575119
9089,573849
9091,573406
9093,574115
9095,573436
9098,574157
9100,573054
9102,573429
9104,572863
9106,573705
9108,572562
9111,572447
9113,573052
9115,572602
9117,573509
9119,572494
9121,572942
9123,572652
9126,573567
9128,572607
9131,572776
9133,573135
9135,572853
9137,573935
9140,572948
9142,573126
9144,573262
9146,574359
9148,573428
9150,573770
9153,573922
9155,573853
9157,574896
9159,573988
9161,574360
9163,574348
9165,575486
9168,574542
9170,575020
9172,574956
9175,574995
9177,576099
9179,575191
9182,575654
9184,575541
9186,576665
9188,575719
9190,576268
9192,576079
9195,576129
9197,577243
9199,576313
9201,576917
9203,576631
9205,577915
9207,576966
9210,577604
9212,577233
9214,577369
9217,578506
9219,577603
9221,578256
9224,577907
9226,578052
9228,578304
9230,579009
9232,578641
9234,578761
9237,579948
9239,579052
9241,579749
9243,579282
9245,579415
9247,579643
9249,580332
9252,579871
9254,580054
9256,581144
9259,580229
9261,580930
9263,580438
9266,580522
9268,581629
9270,581329
9272,580757
9274,580827
9276,581944
9279,580941
9281,581601
9283,580983
9285,580980
9287,581976
9289,581588
9292,580964
9294,580950
9296,581904
9298,580828
9300,581433
9303,580771
9305,580749
9308,581738
9310,580582
9312,580521
9314,580480
9316,581482
9318,580343
9321,580990
9323,580263
9325,580238
9327,581199
9329,580132
9331,579973
9334,579972
9336,580927
9338,579862
9340,580457
9342,579791
9345,579907
9347,580710
9350,579674
9352,580272
9354,579665
9356,580539
9358,579540
9360,580144
9363,579562
9365,579735
9367,580450
9369,579546
9371,580208
9373,579926
9376,580552
9378,579652
9380,580368
9382,579744
9384,580184
9387,580662
9389,579847
9392,580552
9394,580009
9396,580858
9398,580058
9400,580820
9402,580387
9405,580900
9407,581166
9409,580444
9411,581298
9413,580768
9415,581477
9418,580863
9420,581695
9422,581169
9424,581965
9426,581918
9428,581366
9431,582156
9434,581750
9436,582474
9438,581879
9440,582756
9442,582255
9444,583070
9447,582872
9449,582442
9451,583300
9453,582828
9455,583668
9457,582958
9460,583814
9462,583334
9464,584232
9466,583901
9468,583505
9470,584369
9473,583865
9476,584715
9478,584395
9480,584887
9482,584453
9484,585397
9486,584974
9489,584576
9491,585463
9493,584992
9495,585996
9497,585476
9499,585985
9502,585524
9504,586472
9506,585974
9508,585603
9510,586476
9512,586031
9515,587014
9518,586495
9520,586073
9522,586552
9524,587492
9526,586984
9528,586597
9531,587475
9533,586997
9535,588017
9537,587481
9539,587095
9541,587481
9544,588476
9546,588013
9548,587573
9550,588435
9552,587927
9554,588931
9556,588371
9560,588044
9562,588955
9564,589446
9566,588922
9568,588519
9570,589424
9573,589059
9575,590027
9577,589453
9579,589151
9581,590005
9583,589585
9586,590019
9588,589725
9590,590466
9592,590045
9594,591089
9596,590453
9598,590138
9602,590929
9604,590435
9606,590704
9608,590322
9610,590876
9612,590261
9615,591111
9617,590237
9619,589768
9621,590098
9623,589323
9625,589991
9628,588356
9630,588322
9632,587454
9634,587888
9636,586767
9638,586145
9640,585806
9644,584858
9646,585329
9648,583414
9650,582978
9652,582083
9654,582507
9657,581270
9659,580697
9661,580102
9663,579338
9665,579836
9667,578574
9670,577459
9672,576825
9674,577313
9676,576183
9678,575882
9680,575140
9683,574584
9686,575234
9688,574213
9690,573312
9692,572842
9694,573603
9696,572665
9699,572653
9701,571947
9703,571653
9705,572438
9707,571587
9709,571754
9712,570843
9714,571788
9716,571002
9718,571219
9720,570526
9722,570442
9725,571404
9728,570673
9730,571056
9732,570303
9734,571395
9736,570759
9738,571134
9741,570409
9743,570479
9745,571614
9747,571023
9749,571430
9751,570761
9754,572026
9756,571365
9758,571936
9760,571264
9762,571324
9764,572544
9767,572031
9769,572498
9772,571812
9774,573202
9776,572614
9778,573149
9780,572424
9783,572593
9785,573819
9787,573203
9789,573790
9791,573103
9793,573234
9796,573847
9798,574448
9800,573733
9802,573900
9804,575063
9806,574502
9809,575087
9811,574386
9814,574560
9816,575179
9818,575692
9820,575010
9822,575203
9825,576385
9827,575830
9829,576402
9831,575725
9833,575932
9835,577101
9838,577132
9840,576494
9842,576714
9844,577962
9846,577379
9848,577946
9851,577282
9853,577505
9856,578658
9858,578764
9860,578073
9862,578300
9864,579347
9867,578790
9869,579452
9871,578688
9873,578985
9875,579817
9877,579222
9880,579059
9882,579401
9884,580149
9886,579531
9888,580169
9890,579316
9893,579660
9895,580157
9897,579653
9900,579280
9902,579739
9904,580071
9906,579514
9909,580062
9911,579186
9913,579627
9915,579821
9917,579265
9919,579780
9922,579391
9924,579446
9926,578935
9928,579450
9930,578517
9932,579116
9935,579056
9937,578596
9939,579121
9942,578798
9944,578659
9946,578280
9948,578871
9951,577901
9953,578548
9955,578314
9957,577958
9959,578499
9961,577609
9964,577997
9966,577758
9968,578354
9970,577487
9972,578249
9974,577897
9977,577594
9979,578265
9981,577418
9984,577923
9986,577689
9988,578354
9990,577539
9993,578443
9995,577984
9997,577853
9999,578561
10001,577790
10004,578319
10006,578197
10008,578863
10011,578080
10013,579081
10015,578618
10018,579220
10020,578464
10022,579446
10025,579033
10028,578903
10030,578849
10032,579887
10035,579470
10037,579385
10039,580091
10042,580468
10044,580042
10046,579903
10049,580638
10051,579941
10053,580570
10056,580442
10058,581171
10060,580468
10063,581534
10065,581088
10067,581721
10071,581059
10073,582152
10075,581653
10078,581545
10080,581611
10082,582654
10085,582238
10087,582082
10089,582914
10092,583245
10094,582778
10096,582673
10099,583472
10101,582783
10103,583332
10106,583222
10108,583993
10110,583308
10114,584324
10116,583922
10118,584527
10120,583830
10123,584875
10125,584472
10127,584442
10130,584315
10132,585435
10134,584956
10137,585098
10139,585417
10141,585931
10144,585444
10146,585643
10148,585894
10151,585285
10153,585997
10156,586230
10159,586348
10161,585834
10163,586984
10166,586570
10168,586906
10170,586430
10173,587598
10175,587118
10177,587499
10180,586955
10182,588163
10184,587683
10187,588135
10189,587876
10191,588650
10194,588159
10196,588663
10199,588238
10202,587814
10204,588482
10206,588891
10208,588326
10211,587890
10213,588924
10215,588246
10218,587743
10220,587142
10222,587969
10225,587223
10227,587390
10229,585486
10232,586208
10234,585179
10236,585286
10240,583994
10242,583767
10244,582706
10247,582721
10249,581406
10251,580471
10254,579999
10256,580050
10258,578601
10261,577778
10263,578428
10265,577341
10268,576053
10270,575212
10272,575955
10275,574946
10277,575082
10279,573106
10283,573918
10285,573009
10287,573254
10290,572021
10292,572283
10294,571492
10296,571788
10299,570750
10301,570207
10303,571174
10306,570865
10308,569795
10310,569395
10313,570397
10315,569729
10317,569300
10320,568928
10322,570068
10324,569510
10328,570128
10330,568915
10332,570084
10335,569552
10337,570195
10339,569380
10342,570377
10344,569836
10346,570490
10349,569688
10351,569573
10353,570785
10356,571056
10358,570275
10360,570165
10363,571340
10365,570947
10368,570847
10371,570821
10373,572037
10375,571598
10378,572333
10380,571587
10382,572685
10384,572299
10387,573069
10389,572296
10391,573332
10394,573015
10396,573727
10398,573015
10401,573186
10403,573961
10405,574548
10408,573716
10411,573951
10413,574674
10416,574396
10418,574461
10420,574844
10423,575345
10425,575188
10427,576033
10430,575675
10432,576169
10434,576067
10437,576871
10439,576172
10441,576936
10444,576897
10446,577704
10448,576985
10451,577516
10454,577682
10456,578473
10459,577723
10461,578243
10463,578248
10466,578220
10468,578208
10470,578671
10472,578649
10475,578502
10477,579295
10479,578937
10482,578769
10484,578641
10486,579384
10489,578499
10491,578699
10493,578526
10497,579267
10499,578322
10501,578869
10504,578452
10506,578992
10508,578024
10511,578573
10513,578103
10515,577980
10518,577690
10520,578206
10522,577716
10525,577647
10527,578241
10529,577828
10532,577328
10534,577243
10536,577834
10540,576938
10542,576961
10544,576905
10547,577519
10549,576623
10551,577191
10554,576759
10556,577348
10558,576442
10560,577078
10563,576602
10565,576508
10567,576315
10570,576922
10572,576494
10574,576477
10577,577188
10579,576969
10582,576621
10585,576664
10587,577318
10589,576452
10592,577130
10594,576744
10596,577511
10599,576723
10601,577383
10603,576982
10606,577830
10608,577077
10610,577770
10613,577399
10615,577448
10617,577395
10620,578141
10622,577778
10625,577925
10628,578655
10630,578666
10632,578276
10635,578525
10637,579097
10639,578326
10642,579150
10644,579101
10646,579498
10648,578817
10651,579677
10653,579327
10655,580019
10658,579366
10660,580168
10662,579862
10665,580372
10668,579857
10670,580711
10673,580359
10675,580905
10677,580896
10680,581263
10682,580922
10684,581491
10687,581417
10689,580955
10691,581831
10694,582147
10696,581904
10698,581430
10701,582348
10703,582004
10705,582346
10708,581939
10711,582861
10713,582535
10716,583240
10718,582446
10720,583272
10723,582989
10725,583766
10727,583204
10729,583900
10732,583578
10734,584435
10736,583811
10739,583491
10741,584388
10743,584983
10746,584173
10748,583953
10750,584945
10754,584614
10756,584775
10758,584569
10761,585483
10763,585205
10765,586138
10768,585135
10770,586059
10772,585695
10775,586623
10777,585767
10779,586481
10782,586081
10784,586981
10786,586062
10789,585827
10791,586604
10793,586876
10797,585840
10799,585375
10801,586047
10804,585391
10806,584718
10808,584080
10811,584565
10813,583722
10815,584203
10817,582036
10820,582417
10822,581486
10824,581769
10827,580264
10829,579773
10831,578698
10834,579038
10836,577523
10839,576670
10842,576964
10844,576327
10846,574844
10849,573967
10851,574381
10853,573447
10856,572448
10858,571715
10860,572129
10863,571396
10865,571849
10867,569930
10870,570396
10872,569638
10874,570180
10877,568936
10880,568507
10882,568358
10885,569078
10887,567930
10889,567606
10892,568191
10894,568441
10896,567311
10899,567177
10901,567663
10903,567242
10905,567056
10908,567080
10910,567462
10912,567141
10915,568084
10917,567266
10919,567580
10923,567364
10925,568320
10927,567432
10930,567671
10932,567737
10934,568776
10937,567862
10939,568212
10941,568325
10944,569335
10946,568489
10948,568798
10951,568866
10953,568861
10955,569134
10958,569578
10960,569501
10962,569546
10966,570629
10968,570286
10970,570089
10973,570157
10975,571210
10977,570380
10980,570897
10982,570788
10984,571940
10987,571084
10989,571630
10991,571297
10993,572584
10996,571748
10998,572406
11000,571952
11003,572092
11005,572440
11008,573079
11011,572688
11013,572901
11015,573999
11018,573925
11020,573472
11022,573682
11025,574840
11027,574045
11029,574764
11032,574463
11034,575597
11036,574803
11039,575451
11041,574933
11043,576310
11046,575404
11048,576093
11051,575527
11054,575685
11056,575825
11058,576524
11061,575927
11063,575967
11065,577076
11068,576751
11070,576055
11072,576106
11075,577167
11077,576121
11079,576702
11081,576008
11084,577004
11086,576014
11088,576590
11091,575861
11094,576906
11096,575846
11099,576406
11101,575671
11103,575685
11106,575584
11108,576162
11110,575464
11113,575485
11115,576395
11117,575825
11120,575133
11122,575174
11124,576146
11127,575115
11129,575647
11131,575031
11134,575888
11137,574888
11139,575486
11142,574795
11144,575788
11146,574769
11149,575416
11151,574724
11153,574946
11156,574782
11158,575447
11160,574823
11163,575110
11165,575769
11167,574918
11169,575015
11172,575422
11174,575979
11176,575145
11180,575911
11182,575806
11184,576189
11187,575498
11189,576296
11191,575698
11194,576524
11196,575857
11198,576631
11201,576143
11203,576836
11205,576280
11208,577130
11210,576588
11212,577293
11215,577357
11217,576804
11219,577061
11223,577911
11225,577834
11227,577311
11230,578167
11232,578464
11234,578353
11237,577865
11239,578754
11241,578216
11244,578832
11246,578382
11248,579208
11250,578684
11253,579567
11255,578888
11257,579725
11260,579235
11262,580155
11265,579778
11268,579358
11270,579773
11272,580754
11275,580351
11277,579892
11279,580818
11282,581282
11284,580812
11286,580382
11289,581307
11291,580842
11293,581334
11296,580931
11298,581788
11300,581290
11303,582317
11305,581411
11308,582300
11311,581791
11313,582805
11315,582296
11318,581841
11320,582278
11322,583266
11325,582806
11327,582428
11329,583276
11332,583745
11334,583243
11336,582832
11338,583748
11341,583238
11343,583733
11345,583343
11348,584212
11351,583795
11353,584775
11356,583896
11358,584786
11360,584333
11363,585324
11365,584801
11367,584421
11370,584781
11372,585773
11374,585138
11377,584794
11379,585617
11381,586037
11384,585324
11386,584877
11388,585506
11392,584830
11394,584804
11396,584234
11399,584659
11401,583751
11403,584408
11406,582777
11408,582821
11410,581916
11413,582442
11415,581203
11417,580464
11420,579313
11422,579724
11424,578490
11426,577798
11429,577395
11431,576802
11433,575610
11437,574977
11439,574421
11441,573632
11444,572921
11446,572374
11448,571833
11451,571048
11453,571566
11455,570453
11458,569589
11460,568939
11462,569601
11465,568646
11467,568448
11469,567316
11472,568036
11474,567160
11476,567138
11480,566501
11482,567017
11484,566143
11487,566301
11489,565699
11491,565490
11494,565688
11496,565890
11498,565303
11501,565215
11503,566216
11505,565572
11508,565231
11510,565134
11512,566233
11514,565691
11517,566052
11520,565395
11522,566511
11525,565911
11527,566403
11529,565716
11532,566974
11534,566419
11536,566971
11539,566216
11541,566365
11543,567024
11546,567510
11548,566808
11550,566957
11553,568074
11555,567554
11557,567433
11560,567552
11563,568704
11565,568195
11568,568717
11570,568161
11572,569338
11575,568759
11577,569282
11579,568571
11582,569857
11584,569227
11586,569776
11589,569058
11591,569188
11593,569816
11596,570321
11598,569620
11600,569806
11602,570985
11606,570446
11608,570336
11610,570437
11613,571682
11615,571078
11617,571715
11620,571227
11622,572376
11624,571806
11627,572353
11629,571654
11631,572931
11634,572354
11636,572920
11638,572137
11641,572352
11643,572800
11645,573378
11649,572588
11651,572783
11653,573767
11656,573207
11658,572941
11660,573208
11663,574102
11665,573524
11667,574047
11670,573493
11672,574189
11674,573608
11677,574151
11679,573295
11681,574092
11684,573573
11686,574092
11688,573191
11691,573624
11694,573538
11696,573990
11698,573080
11701,573545
11703,573729
11705,573232
11708,572850
11710,573429
11712,573449
11715,573009
11717,573511
11719,573229
11722,573212
11724,572717
11726,573301
11729,572436
11731,572876
11734,572528
11737,573104
11739,572228
11741,572937
11744,572749
11746,573030
11748,572233
11751,572964
11753,572714
11755,572380
11758,572250
11760,573140
11762,572773
11765,572564
11767,573258
11769,573351
11772,572997
11774,572852
11777,573524
11779,572780
11782,573302
11784,573166
11786,573912
11789,573156
11791,574073
11793,573667
11796,574300
11798,573597
11800,574541
11803,574189
11805,574040
11807,574087
11810,575050
11812,574613
11814,574526
11817,575311
11820,575626
11822,575225
11825,575094
11827,575900
11829,575131
11832,575746
11834,575660
11836,576382
11839,575632
11841,576688
11843,576231
11846,576883
11848,576153
11850,577250
11853,576808
11855,576680
11857,576748
11859,577767
11863,577384
11865,577277
11867,578063
11870,578323
11872,577885
11874,577793
11877,578527
11879,577846
11881,578429
11884,578414
11886,579103
11888,578361
11891,579452
11893,578941
11895,579598
11898,578826
11900,579880
11902,579398
11906,579401
11908,579325
11910,580333
11913,579844
11915,579904
11917,580474
11920,580807
11922,580333
11924,580453
11927,580780
11929,580168
11931,580770
11934,580945
11936,581186
11938,580541
11941,581691
11943,581204
11945,581560
11948,581032
11951,582206
11953,581728
11955,582012
11958,581496
11960,582682
11962,582169
11965,582542
11967,582422
11969,583142
11972,582716
11982,583149
11983,583149
11985,583733
11987,583303
11988,582949
11991,584121
11993,583584
11995,584058
11997,583565
11999,583139
12001,584243
12003,583608
12005,584044
12007,583168
12009,582660
12011,583590
12013,582842
12015,583094
12017,582071
12019,582085
12022,581149
12024,581256
12026,579967
12029,579141
12032,579769
12034,578782
12036,577384
12039,576505
12041,577040
12043,575945
12046,574525
12048,573636
12050,574234
12053,573082
12055,573203
12057,570989
12060,571601
12062,570542
12064,570690
12067,569347
12069,569252
12071,568338
12075,568597
12077,567323
12079,566697
12082,567580
12084,567047
12086,565880
12089,565337
12091,566191
12093,565465
12096,564814
12098,564336
12100,565421
12103,564719
12105,565263
12107,563909
12110,564969
12112,564396
12114,564984
12118,564083
12120,564857
12122,564328
12124,564997
12127,564149
12129,563907
12131,565061
12134,565291
12136,564453
12138,564277
12141,565512
12143,565020
12145,564984
12148,564787
12150,566018
12152,565555
12155,566373
12157,565479
12160,566628
12163,566242
12165,566964
12167,566163
12170,567288
12172,566819
12174,567618
12177,566861
12179,566888
12181,567775
12184,568244
12186,567372
12188,567541
12191,568329
12193,567995
12195,568070
12198,568257
12200,568850
12203,568590
12206,569415
12208,568917
12210,569469
12212,569305
12215,570102
12217,569330
12219,570053
12222,569992
12224,570812
12226,570080
12229,570523
12231,570828
12233,571635
12236,570860
12238,571378
12240,571526
12243,571497
12246,571717
12248,572199
12251,572339
12253,572188
12255,573085
12258,572824
12260,572799
12262,572777
12265,573565
12267,572759
12269,573331
12272,573137
12274,573922
12276,573099
12279,573533
12281,573235
12283,573955
12286,573063
12289,573596
12291,573190
12294,573130
12296,572947
12298,573459
12300,573047
12303,572977
12305,573649
12307,573241
12310,572749
12312,572631
12314,573365
12317,572419
12319,572878
12321,572283
12324,572972
12326,572055
12328,572621
12332,572082
12334,572676
12336,571772
12339,572349
12341,571833
12343,571720
12346,571453
12348,572055
12350,571608
12353,571520
12355,572240
12357,571948
12360,571546
12362,571467
12364,572167
12367,571335
12369,571995
12371,571569
12375,572353
12377,571438
12379,572124
12382,571760
12384,572523
12386,571726
12388,572430
12391,572049
12393,572171
12395,572057
12398,572772
12400,572385
12402,572454
12405,573253
12407,573178
12409,572856
12412,572982
12414,573677
12417,572938
12420,573668
12422,573597
12424,574212
12427,573472
12429,574267
12431,573893
12434,574703
12436,574010
12438,574724
12441,574477
12443,574852
12445,574557
12448,575350
12450,575026
12452,575467
12455,575700
12457,575966
12460,575630
12463,576169
12465,576178
12467,575726
12469,576492
12472,576767
12474,576683
12476,576292
12479,577093
12481,576709
12483,577211
12486,576812
12488,577595
12490,577269
12493,577996
12495,577310
12497,578180
12500,577828
12503,578582
12505,578062
12508,578615
12510,578275
12512,579081
12515,578527
12517,578199
12519,579052
12522,579556
12524,578907
12526,578580
12529,579467
12531,579128
12533,579313
12536,579021
12538,579900
12540,579606
12544,580486
12546,579445
12548,580336
12551,580067
12553,580918
12555,580095
12557,579858
12560,580471
12562,581376
12564,580527
12567,580293
12569,581165
12571,581823
12574,580983
12576,580781
12578,581679
12581,581339
12583,581449
12585,581243
12589,582070
12591,581728
12593,582680
12596,581490
12598,582341
12600,581933
12603,582818
12605,581888
12607,581607
12610,581837
12612,582603
12614,581461
12617,580953
12619,581618
12621,581519
12624,580174
12626,579541
12628,579998
12632,579129
12634,578146
12636,577339
12639,577628
12641,576758
12643,577125
12645,574776
12648,575086
12650,574107
12652,574412
12655,572922
12657,572144
12659,571444
12662,571783
12664,570367
12666,569585
12669,569910
12672,569423
12674,568039
12677,567486
12679,567735
12681,567029
12684,566250
12686,565887
12688,566145
12691,565509
12693,566221
12695,564745
12698,564953
12700,564402
12702,565222
12705,564076
12707,564009
12709,563800
12712,564651
12715,563667
12717,563739
12720,563777
12722,564462
12724,563490
12727,563729
12729,563777
12731,563603
12734,563716
12736,564007
12738,563958
12740,563946
12743,564983
12745,564540
12747,564391
12750,564424
12752,565556
12754,564650
12758,565136
12760,565017
12762,566136
12765,565311
12767,565820
12769,565587
12772,566845
12774,565966
12776,566561
12779,566251
12781,566360
12783,566630
12786,567272
12788,566834
12790,566997
12793,568243
12795,567961
12797,567519
12801,567705
12803,568875
12805,568075
12808,568725
12810,568368
12812,569587
12815,568696
12817,569389
12819,568926
12821,570348
12824,569443
12826,570226
12828,569713
12831,569955
12833,570374
12835,571059
12838,570554
12840,570837
12843,571997
12846,571174
12848,571373
12850,571567
12853,572806
12855,571929
12857,572652
12860,572250
12862,573353
12864,572513
12867,573190
12869,572554
12871,573762
12874,572824
12876,573499
12878,572805
12881,572891
12883,572945
12886,573583
12889,572894
12891,572977
12893,574013
12896,572984
12898,572830
12900,572907
12903,573846
12905,572819
12907,573405
12909,572702
12912,573621
12914,572557
12916,573180
12919,572437
12921,573363
12923,572334
12926,572868
12929,572190
12931,572346
12934,572067
12936,572627
12938,571911
12941,572122
12943,572809
12945,571815
12948,571721
12950,572022
12952,572586
12955,571703
12957,572334
12959,572088
12962,572549
12964,571670
12966,572353
12969,571723
12972,572532
12974,571725
12977,572441
12979,571804
12981,572403
12984,571903
12986,572680
12988,572093
12991,572721
12993,572845
12995,572266
12997,572442
13000,573205
13002,573272
13004,572646
13007,573488
13009,573661
13011,573598
13015,573082
13017,573932
13019,573454
13022,574079
13024,573585
13026,574515
13029,573996
13031,574791
13033,574170
13036,575085
13038,574555
13040,575446
13043,575211
13045,574787
13047,575115
13050,576107
13052,575781
13054,575352
13058,576274
13060,576746
13062,576363
13065,575970
13067,576815
13069,576306
13072,576936
13074,576539
13076,577469
13078,576938
13081,577941
13083,577133
13085,578051
13088,577521
13090,578536
13092,578077
13095,577703
13097,578084
13100,579135
13103,578581
13105,578224
13107,579125
13110,579647
13112,579167
13114,578714
13117,579586
13119,579052
13121,579647
13124,579221
13126,580101
13128,579549
13131,580596
13133,580034
13135,580552
13138,579961
13140,580976
13143,580508
13146,580077
13148,580432
13150,581356
13153,580842
13155,580491
13157,581332
13160,581782
13162,581192
13164,580884
13166,581730
13169,581180
13171,581620
13173,581299
13176,582098
13178,581620
13180,582602
13184,582055
13186,582407
13188,581965
13191,583030
13193,582430
13195,582227
13198,582407
13200,583508
13202,582907
13205,582833
13207,583287
13209,583972
13212,583454
13214,583388
13216,583657
13219,583375
13221,583899
13223,583935
13227,584127
13229,583846
13231,584910
13234,584336
13236,584422
13238,584111
13241,585096
13243,584549
13245,584554
13248,583960
13250,584885
13252,584105
13254,584018
13257,583479
13259,583639
13261,582645
13264,582447
13266,581621
13268,580952
13272,580347
13274,580019
13276,578939
13279,578256
13281,578687
13283,577481
13286,575936
13288,575252
13290,575723
13293,574437
13295,574105
13297,572281
13300,572756
13302,571566
13304,571316
13307,570083
13309,570100
13312,569013
13315,568984
13317,567771
13319,567324
13322,566983
13324,566973
13326,565857
13329,565495
13331,566306
13333,565395
13336,564524
13338,564285
13340,565186
13342,564371
13345,564624
13347,563561
13349,564512
13352,563753
13355,564098
13357,563214
13360,564223
13362,563537
13364,563970
13367,563164
13369,563157
13371,563656
13374,564095
13376,563357
13378,563426
13381,564552
13383,564032
13385,563767
13388,563895
13390,565045
13392,564476
13395,564996
13398,564500
13400,565613
13403,565060
13405,565661
13407,564981
13410,566294
13412,565681
13414,566265
13417,565506
13419,565695
13421,566887
13424,566857
13426,566159
13428,566290
13430,567470
13433,566875
13435,566699
13437,566949
13441,567996
13443,567405
13445,568019
13448,567518
13450,568500
13452,567957
13455,568540
13457,567792
13459,568969
13462,568509
13464,569145
13466,568461
13469,568923
13471,569575
13473,569864
13476,569177
13478,569712
13480,570243
13484,569900
13486,569881
13488,570480
13491,570923
13493,570602
13495,571340
13498,571249
13500,571498
13502,571246
13505,571891
13507,571131
13509,572015
13512,571717
13514,572387
13516,571623
13518,572403
13521,572328
13523,572713
13526,571922
13529,572636
13531,572521
13533,572247
13536,571992
13538,572773
13540,572523
13543,572267
13545,572871
13547,572790
13550,572464
13552,572164
13554,572754
13557,571876
13559,572263
13561,572005
13564,572577
13566,571725
13569,572515
13572,571962
13574,572359
13576,571504
13579,572334
13581,571822
13583,571611
13586,571338
13588,572159
13590,571642
13593,571458
13595,572052
13597,572095
13600,571527
13602,571352
13604,572003
13606,571228
13609,571569
13612,571396
13614,572043
13617,571280
13619,572192
13621,571670
13624,572318
13626,571506
13628,572423
13631,571962
13633,571778
13635,571732
13638,572750
13640,572274
13642,572159
13645,572929
13647,573189
13649,572691
13652,572571
13655,573296
13657,572590
13660,573166
13662,573139
13664,573814
13667,573113
13669,574129
13671,573723
13674,574363
13676,573639
13678,574721
13681,574298
13683,574281
13685,574264
13687,575365
13690,574884
13692,574910
13694,575606
13698,575968
13700,575549
13702,575594
13705,576168
13707,575471
13709,576598
13712,576311
13714,576671
13716,576107
13719,577214
13721,576753
13723,577265
13726,576655
13728,577765
13730,577386
13733,577635
13735,577241
13737,578387
13741,577960
13743,578317
13745,578376
13748,579010
13750,578543
13752,578902
13755,578780
13757,578288
13759,579511
13762,579555
13764,579248
13766,578816
13769,580053
13771,579566
13773,579719
13775,579355
13778,580498
13780,580053
13783,580624
13786,579767
13788,580932
13790,580480
13793,581110
13795,580540
13797,581412
13800,580956
13802,581582
13804,580935
13807,580644
13809,581819
13811,582059
13814,581312
13816,581039
13818,582289
13821,581812
13824,581712
13826,581435
13829,582726
13831,582266
13833,582923
13836,581883
13838,583172
13840,582657
13843,583442
13845,582617
13847,583637
13850,583211
13852,583991
13854,583193
13857,582954
13859,584182
13861,584510
13863,583688
13867,583432
13869,584733
13871,584296
13874,584231
13876,584062
13878,585288
13881,584865
13883,585619
13885,584483
13888,585663
13890,585199
13892,585885
13895,584926
13897,585724
13899,585127
13902,585641
13904,584463
13906,584007
13910,584914
13912,584395
13914,583119
13917,582485
13919,583245
13921,582190
13924,580881
13926,580083
13928,580750
13931,579552
13933,579690
13935,577301
13938,577816
13940,576665
13942,576716
13945,575135
13947,574884
13949,573731
13952,573892
13955,572380
13957,571761
13959,572128
13962,571342
13964,569927
13966,569447
13969,569781
13971,568909
13973,567997
13976,567666
13978,567891
13980,567230
13983,567623
13985,566299
13987,566594
13990,566060
13992,566538
13995,565475
13998,565472
14000,565272
14002,565896
14005,564879
14007,565025
14009,565250
14012,565680
14014,564752
14016,565015
14019,565158
14021,564973
14023,564930
14026,565258
14028,565430
14030,565229
14033,566072
14035,565746
14038,565789
14040,565760
14043,566637
14045,565852
14047,566427
14050,566378
14052,567315
14054,566556
14057,567166
14059,567078
14061,567979
14064,567254
14066,567871
14068,567683
14071,567794
14073,567964
14075,568630
14078,568346
14081,568477
14083,569433
14086,569287
14088,569040
14090,569115
14093,569964
14095,569236
14097,569948
14100,569719
14102,570627
14104,569858
14107,570576
14109,570336
14111,571314
14114,570599
14116,571329
14118,571071
14121,571188
14124,571420
14126,572186
14128,571917
14131,572094
14133,572944
14135,573021
14138,572696
14140,572844
14142,573779
14145,573030
14147,573757
14149,573607
14152,574439
14154,573712
14156,574439
14159,574079
14161,574981
14163,574158
14167,574928
14169,574573
14171,574556
14174,574502
14176,575123
14178,574744
14181,574760
14183,575464
14185,575173
14188,574736
14190,574723
14192,575393
14195,574465
14197,575103
14199,574611
14202,575237
14204,574284
14206,574875
14210,574431
14212,574990
14214,574023
14216,574674
14219,574163
14221,574303
14223,573758
14226,574295
14228,573828
14230,574039
14233,574261
14235,574060
14237,573609
14240,573857
14242,573892
14244,573166
14247,573910
14249,573744
14252,573695
14255,573071
14257,573774
14259,573282
14262,573624
14264,573067
14266,573798
14269,573392
14271,573950
14273,573153
14276,573963
14278,573612
14280,574230
14283,573851
14285,573383
14287,573901
14290,574603
14292,574158
14295,573758
14297,574638
14300,575044
14302,574525
14304,574155
14307,575043
14309,574768
14311,574941
14314,574641
14316,575564
14318,575264
14321,576213
14323,575228
14325,576178
14328,575864
14330,576780
14332,576102
14336,575868
14338,576479
14340,577444
14343,576695
14345,576466
14347,577435
14350,578096
14352,577329
14354,577098
14357,578041
14359,577770
14361,577949
14364,577758
14366,578687
14368,578423
14371,579385
14373,578386
14375,579351
14379,579024
14381,580032
14383,579199
14385,578985
14388,579667
14390,580572
14392,579817
14395,579597
14397,580581
14399,581187
14402,580304
14404,580112
14406,581035
14409,580774
14411,580849
14413,580661
14416,581597
14418,581244
14420,582243
14424,581170
14426,582082
14428,581725
14431,582703
14433,581812
14435,581658
14438,582185
14440,583191
14442,582248
14445,582119
14447,583021
14449,583637
14452,582720
14454,582565
14456,583431
14459,583048
14461,583155
14464,583078
14467,583839
14469,583508
14471,584513
14473,583626
14476,584244
14478,583938
14480,585025
14483,584060
14485,584222
14487,584385
14490,585474
14492,584604
14494,584798
14497,585129
14499,586073
14501,585178
14504,585431
14507,585656
14509,585552
14512,585714
14514,585985
14516,586117
14519,586003
14521,587096
14523,586458
14526,586393
14528,586292
14530,587264
14533,586319
14535,586549
14537,586055
14540,586959
14542,585721
14544,585909
14547,585342
14550,585708
14552,584276
14555,584313
14557,583482
14559,582988
14561,582022
14564,581997
14566,581004
14568,580382
14571,580890
14573,579297
14575,578116
14578,577596
14580,578037
14582,576444
14585,576408
14587,574772
14589,575287
14593,573788
14595,573765
14597,572665
14600,572845
14602,571386
14604,571571
14607,570522
14609,570195
14611,569580
14614,569817
14616,568827
14618,568584
14621,569455
14623,568201
14625,567720
14628,567560
14630,568490
14632,567373
14636,567792
14638,566907
14640,567933
14643,566836
14645,567403
14647,566615
14649,567738
14652,566784
14654,567372
14656,566769
14659,566851
14661,566980
14663,567715
14666,567063
14668,567242
14670,568358
14673,567473
14675,567537
14678,567750
14681,568917
14683,568048
14685,568733
14688,568439
14690,569584
14692,568752
14695,569487
14697,568920
14699,570397
14702,569474
14704,570249
14706,569711
14709,569947
14711,570198
14713,571001
14716,570382
14718,570751
14721,571785
14724,570979
14726,571141
14728,571557
14731,572491
14733,571701
14735,572470
14737,572438
14740,573155
14742,572356
14744,573239
14747,572736
14749,573921
14751,573212
14754,574080
14756,573540
14758,574240
14761,574074
14764,574926
14766,574437
14769,575152
14771,575605
14773,574948
14776,575280
14778,576070
14780,576305
14783,575795
14785,576647
14787,576861
14790,576948
14792,576401
14794,577221
14797,576666
14799,577391
14801,576816
14804,577616
14807,576973
14809,577746
14812,577557
14814,577706
14816,577065
14819,577836
14821,577469
14823,576903
14825,576932
14828,577762
14830,577337
14832,576747
14835,577454
14837,577549
14839,577038
14842,576484
14844,577221
14846,576547
14850,576702
14852,576176
14854,576915
14857,576293
14859,577054
14861,576496
14864,576614
14866,575959
14868,576810
14871,576191
14873,575681
14875,575750
14878,576585
14880,576040
14882,575505
14885,576296
14887,576558
14889,575965
14893,575501
14895,576261
14897,575720
14900,575984
14902,575480
14904,576356
14906,575751
14909,576760
14911,576156
14913,576539
14916,576033
14918,577011
14920,576509
14923,576083
14925,576398
14927,577364
14930,576833
14932,576483
14935,577363
14938,577881
14940,577332
14942,577012
14945,577874
14947,577373
14949,577863
14952,577584
14954,578463
14956,577966
14959,578991
14961,578483
14963,579002
14966,578550
14968,579635
14970,579123
14973,578913
14976,579207
14978,580252
14981,579743
14983,579619
14985,580288
14988,580906
14990,580429
14992,580410
14994,580885
14997,580525
14999,581120
15001,581104
15004,581461
15006,581159
15008,582310
15011,581795
15013,582039
15015,581797
15019,582935
15021,582434
15023,582562
15026,582471
15028,583590
15030,583057
15033,583225
15035,583179
15037,584132
15040,583611
15042,583831
15044,583695
15047,583584
15049,584151
15051,584436
15054,584200
15056,584059
15058,585232
15062,584643
15064,584607
15066,584534
15069,585674
15071,585185
15073,585598
15076,585076
15078,586224
15080,585673
15082,586068
15085,585479
15087,586665
15089,586096
15092,586583
15094,585916
15096,585970
15099,587155
15101,587071
15104,586381
15107,586449
15109,587649
15111,587062
15114,586851
15116,586926
15118,588110
15121,587592
15123,588018
15125,587446
15128,588685
15130,588101
15132,588662
15135,587914
15137,589219
15139,588628
15142,589173
15144,588441
15147,588503
15150,589755
15152,589689
15154,588915
15157,588958
15159,590124
15161,589521
15164,589206
15166,589217
15168,590247
15170,589514
15173,589981
15175,588787
15177,589680
15180,588758
15182,588951
15184,587734
15187,588031
15190,586984
15192,586972
15195,585626
15197,585130
15199,585617
15202,584256
15204,582788
15206,582209
15209,582685
15211,581349
15213,579617
15216,579138
15218,579555
15220,578279
15223,578108
15225,576176
15227,576585
15230,575308
15233,575215
15235,573849
15238,573902
15240,572765
15242,572833
15245,571531
15247,571434
15249,571722
15252,570921
15254,569755
15256,569787
15258,570064
15261,569235
15263,568451
15265,568633
15268,568825
15270,568230
15272,568562
15276,567961
15278,568104
15280,567599
15283,568105
15285,567201
15287,567880
15290,567515
15292,568033
15294,567194
15297,567869
15299,567884
15301,568284
15304,567434
15306,568206
15308,568192
15311,567968
15313,567914
15315,568762
15319,568655
15321,568542
15323,569219
15326,569413
15328,569292
15330,569102
15333,569918
15335,569206
15337,569921
15340,569838
15342,570633
15344,569861
15346,570873
15349,570643
15351,571228
15353,570616
15356,571576
15358,571195
15361,571148
15364,571202
15366,572184
15368,571838
15371,571736
15373,572552
15375,572843
15378,572447
15380,572387
15382,573126
15385,572374
15387,573481
15389,573035
15392,573884
15394,573153
15396,574216
15399,573868
15401,574662
15404,574008
15407,575052
15409,574712
15411,574684
15414,574878
15416,575962
15418,575504
15421,575437
15423,576231
15425,576648
15428,576208
15430,576170
15432,576935
15434,576213
15437,577242
15439,576723
15441,577472
15444,576666
15447,577706
15449,577190
15452,577781
15454,576946
15456,577906
15459,577348
15461,577264
15463,577031
15466,578040
15468,577439
15470,577300
15473,577906
15475,577971
15477,577319
15480,577224
15482,577722
15484,576826
15488,577811
15490,577110
15492,577541
15495,576679
15497,577634
15499,576964
15502,577250
15504,576457
15506,577353
15509,576776
15511,576905
15513,576235
15515,577231
15518,576666
15520,576867
15522,576831
15525,577156
15527,576568
15529,576814
15533,576719
15535,576108
15537,577148
15540,576931
15542,576703
15544,576197
15547,577281
15549,576754
15551,576831
15554,576380
15556,577463
15558,577026
15561,577442
15563,576645
15565,577822
15568,577379
15570,577928
15572,577382
15576,578282
15578,577812
15580,578423
15583,577839
15585,577522
15587,578773
15590,578967
15592,578372
15594,578135
15597,579377
15599,578945
15601,578937
15603,578713
15606,579967
15608,579580
15610,580316
15613,579349
15616,580628
15618,580200
15621,580969
15623,580208
15625,581340
15628,580884
15630,581691
15632,580867
15635,580711
15637,581975
15639,582334
15642,581605
15644,581407
15646,582654
15649,582231
15651,582228
15653,582059
15656,583375
15659,582960
15661,583776
15664,582811
15666,584074
15668,583643
15671,584436
15673,583612
15675,583422
15678,584285
15680,585064
15682,584183
15685,584104
15687,585279
15689,585679
15691,584807
15694,584626
15696,585923
15698,585503
15702,585472
15704,585254
15706,586478
15709,586041
15711,586818
15713,585803
15716,587058
15718,586509
15720,587367
15723,586446
15725,586319
15727,587071
15730,587831
15732,587004
15734,586837
15737,588050
15739,588306
15741,587431
15745,587402
15747,588461
15749,588004
15752,587964
15754,587980
15756,588915
15759,588532
15761,589285
15763,588567
15766,589310
15768,588978
15770,589811
15773,589023
15775,589186
15777,589592
15780,590423
15782,589569
15784,589876
15787,590357
15790,591003
15792,590211
15794,590546
15797,590959
15799,590775
15801,590843
15804,591222
15806,591437
15808,591285
15811,592175
15813,591765
15815,591860
15818,591708
15820,592522
15822,591545
15825,591926
15827,591511
15830,592126
15833,591007
15835,591192
15837,590779
15840,590742
15842,589364
15844,589398
15847,588639
15849,588016
15851,586781
15854,586702
15856,585827
15858,585075
15861,585219
15863,583539
15865,582557
15867,581899
15870,582020
15873,580434
15875,580350
15878,578696
15880,578932
15882,577385
15885,577358
15887,576441
15889,576141
15892,574695
15894,574793
15896,573925
15899,573441
15901,572456
15903,572660
15906,571921
15908,571561
15910,571975
15913,571139
15916,570457
15918,570189
15921,570732
15923,569641
15925,570101
15928,569328
15930,569976
15932,568914
15935,569513
15937,569002
15939,569655
15942,568714
15944,569325
15946,568921
15949,568902
15951,568793
15953,569517
15955,569128
15959,569197
15961,569974
15963,569178
15966,569590
15968,569690
15970,570507
15973,569712
15975,570523
15977,570323
15980,571074
15982,570407
15984,571178
15987,570889
15989,571871
15991,571135
15994,571923
15996,571670
15998,571877
16002,571898
16004,572713
16006,572416
16009,572697
16011,573287
16013,572665
16016,573132
16018,573518
16020,573955
16023,573354
16025,574119
16027,574394
16030,574604
16032,574060
16034,574900
16037,574611
16039,575381
16041,574794
16044,575718
16047,575401
16049,576032
16051,575637
16054,576538
16056,576287
16058,576989
16061,576859
16063,576445
16065,577157
16068,577933
16070,577645
16072,577327
16075,578290
16077,578838
16079,578484
16082,578165
16084,579022
16087,578739
16090,579035
16092,578726
16094,579584
16097,579261
16099,580050
16101,579038
16104,579913
16106,579471
16108,580282
16111,579565
16113,579099
16115,579536
16118,580330
16120,579478
16122,579129
16124,579916
16128,580174
16130,579252
16132,578780
16135,579600
16137,579172
16139,578966
16142,578533
16144,579272
16146,578818
16149,579584
16151,578203
16153,578945
16156,578495
16158,579255
16160,578248
16163,577901
16165,578130
16167,579003
16171,578032
16173,577634
16175,578435
16178,578799
16180,577809
16182,577455
16185,578245
16187,577809
16189,577744
16192,577383
16194,578254
16196,577892
16199,578754
16201,577525
16203,578363
16206,577931
16208,578934
16210,578039
16212,577795
16216,578268
16218,579242
16220,578296
16223,578078
16225,578969
16227,579598
16230,578730
16232,578504
16234,579451
16237,579108
16239,579235
16241,579085
16244,580010
16246,579656
16248,580661
16251,579786
16253,580541
16256,580265
16259,581296
16261,580451
16263,580525
16266,580939
16268,582022
16270,581173
16273,581282
16275,581794
16277,582761
16280,581879
16282,582121
16284,582499
16287,582333
16289,582590
16291,582855
16294,583107
16296,582991
16299,584168
16301,583308
16304,583801
16306,583772
16308,584913
16311,584083
16313,584443
16315,584468
16318,585605
16320,584749
16322,585206
16325,585137
16327,586297
16329,585391
16332,585938
16334,585688
16336,585774
16339,586094
16342,586570
16344,586286
16347,586364
16349,587571
16351,586668
16354,586861
16356,587011
16358,588105
16361,587269
16363,587864
16365,587496
16368,588647
16370,587756
16372,588404
16375,587907
16377,589165
16379,588284
16382,588937
16385,588373
16387,588480
16389,588745
16392,589397
16394,588887
16396,589053
16399,590188
16401,589300
16403,589364
16406,589554
16408,590724
16410,589780
16413,590458
16415,590086
16417,591273
16420,590373
16422,591130
16424,590531
16428,591939
16430,591077
16432,591829
16435,591199
16437,591384
16439,591708
16442,592370
16444,591779
16446,591930
16449,593090
16451,592160
16453,592229
16456,592345
16458,593495
16460,592450
16463,593028
16465,592293
16467,593224
16471,592041
16473,592402
16475,591401
16477,591879
16480,590451
16482,590658
16484,589511
16487,589102
16489,587953
16491,587947
16494,586643
16496,586154
16498,586541
16501,584897
16503,583499
16505,583104
16508,583342
16510,581764
16513,581759
16516,580084
16518,580310
16520,578783
16523,578843
16525,577642
16527,577523
16530,576132
16532,576257
16534,575118
16537,575088
16539,575142
16541,574125
16544,573159
16546,573276
16548,573282
16551,572210
16553,571630
16556,572000
16559,572006
16561,571028
16563,571549
16565,571209
16568,571159
16570,570374
16572,571020
16575,570264
16577,570703
16579,570093
16582,570792
16584,570186
16586,570912
16589,570764
16591,570987
16593,570425
16596,571247
16599,571085
16601,570566
16604,570889
16606,571742
16608,571584
16611,571190
16613,572105
16615,572504
16618,572220
16620,571891
16622,572741
16625,572329
16627,573015
16629,572671
16632,573615
16634,573139
16636,574218
16640,573880
16642,574529
16644,574141
16647,575163
16649,574693
16651,574446
16653,574959
16656,575998
16658,575581
16660,575256
16663,576183
16665,576874
16667,576411
16670,576222
16672,577173
16674,576773
16677,577527
16679,577191
16681,578156
16685,577770
16687,578860
16689,578487
16692,579190
16694,578761
16696,579874
16699,579479
16701,579193
16703,579690
16706,580831
16708,580394
16710,580086
16713,581007
16715,581654
16717,581173
16720,580872
16722,581692
16724,581206
16728,581674
16730,581283
16741,581513
16741,582254
16743,582254
16745,581694
16747,582548
16749,581904
16751,581478
16753,582155
16754,581434
16756,582349
16758,581671
16760,581256
16762,581810
16764,581105
16766,582021
16769,581358
16771,580944
16773,581430
16775,580811
16777,580984
16780,580714
16782,580981
16784,580452
16787,581348
16789,580597
16791,580579
16794,580065
16796,580927
16798,580290
16801,580122
16803,579754
16805,580675
16808,580015
16811,579944
16813,579876
16816,580501
16818,579832
16820,579852
16822,579695
16825,579353
16827,580351
16829,579879
16832,579600
16834,579389
16836,580442
16839,579849
16841,579737
16843,579592
16846,580677
16848,580105
16850,580417
16854,579971
16856,581082
16858,580562
16861,580847
16863,580378
16865,581511
16868,580992
16870,581383
16872,580809
16875,580838
16877,582079
16879,582013
16882,581412
16884,581460
16886,582635
16889,582182
16891,582040
16893,582113
16897,583358
16899,582863
16901,583416
16904,582843
16906,584128
16908,583546
16910,584179
16913,583492
16915,584879
16917,584337
16920,584917
16922,584239
16924,584343
16927,585593
16929,585716
16931,585022
16934,585170
16936,586378
16939,585869
16942,585733
16944,585887
16946,587100
16949,586618
16951,587211
16953,586638
16956,587832
16958,587366
16960,587875
16963,587160
16965,588525
16967,588026
16970,588575
16972,587901
16974,588043
16977,589219
16979,589321
16982,588529
16985,588643
16987,589914
16989,589350
16992,589156
16994,589350
16996,590447
16998,589914
17001,590513
17003,589979
17005,591117
17008,590520
17010,591106
17012,590270
17015,591608
17017,591065
17019,591640
17022,590867
17025,591182
17027,592065
17030,592168
17032,591373
17034,591761
17037,592600
17039,592058
17041,591881
17044,592358
17046,592992
17048,592563
17051,593255
17053,593053
17055,593450
17058,593153
17060,593752
17062,593043
17065,594003
17068,593735
17070,594411
17073,593645
17075,594360
17077,594642
17080,594996
17082,594275
17084,594961
17086,595128
17089,594742
17091,594625
17093,595353
17096,595293
17098,594909
17100,595403
17103,594976
17105,594621
17107,593986
17111,594311
17113,593020
17115,593424
17118,591850
17120,591927
17122,590488
17125,590722
17127,589693
17129,588778
17132,587214
17134,587326
17136,586212
17139,585357
17141,583750
17143,583954
17146,582797
17148,581939
17150,581964
17154,580703
17156,579632
17158,578856
17161,578879
17163,577443
17165,577814
17168,576073
17170,576227
17172,574933
17174,575421
17177,574419
17179,574122
17181,572926
17184,573448
17186,572626
17188,572114
17191,571399
17193,572132
17196,571402
17199,570994
17201,571450
17203,571269
17206,570588
17208,570353
17210,570907
17213,569963
17215,570868
17217,570138
17220,570759
17222,569871
17224,570817
17227,570300
17229,570917
17231,570054
17234,571094
17236,570596
17239,570535
17242,570588
17244,571610
17246,571168
17249,571163
17251,571853
17253,572306
17256,571896
17258,571870
17260,572676
17262,571963
17265,573062
17267,572741
17269,573431
17272,572737
17274,573867
17276,573477
17280,574240
17282,573558
17284,574694
17287,574242
17289,574474
17291,574351
17294,575487
17296,575108
17298,575374
17301,575647
17303,576244
17305,575881
17308,576181
17310,576340
17312,575945
17315,577141
17317,577219
17319,577182
17323,576769
17325,578060
17327,577685
17330,578079
17332,577765
17334,579052
17337,578645
17339,579213
17341,578749
17343,580028
17346,579631
17348,580166
17350,579943
17353,580858
17355,580451
17357,581086
17360,580619
17362,580286
17364,581431
17368,581661
17370,581090
17372,580796
17375,581931
17377,581448
17379,581388
17382,581008
17384,582128
17386,581589
17389,582152
17391,581002
17393,582133
17396,581544
17398,582114
17400,581223
17403,580895
17405,581299
17408,581894
17411,580986
17413,580597
17415,581652
17418,581658
17420,580656
17422,580312
17425,581313
17427,580685
17429,580351
17431,579937
17434,580997
17436,580378
17438,581021
17441,579602
17443,580804
17445,580137
17448,580743
17451,579784
17453,579507
17456,580044
17458,580717
17460,579742
17463,579397
17465,580599
17467,580693
17470,579781
17472,579515
17474,580646
17477,580093
17479,579915
17481,579670
17484,580937
17486,580371
17488,581109
17491,580063
17494,581275
17496,580767
17499,581544
17501,580683
17503,580475
17506,581218
17508,581973
17510,581109
17513,580958
17515,582244
17517,582496
17519,581658
17522,581641
17524,582733
17526,582323
17529,582334
17531,582332
17533,583444
17537,583022
17539,583902
17541,583139
17544,584136
17546,583806
17548,584648
17551,583878
17553,584086
17555,584583
17558,585366
17560,584620
17562,584848
17565,585546
17567,586204
17569,585401
17572,585801
17574,586272
17576,586101
17580,586230
17582,586602
17584,587041
17587,586916
17589,587784
17591,587484
17594,587729
17596,587647
17598,588597
17601,587820
17603,588299
17605,588436
17607,589383
17610,588632
17612,589125
17614,589213
17617,590091
17619,589293
17622,589854
17625,589851
17627,589847
17629,589948
17632,590552
17634,590496
17636,590503
17639,591407
17641,590612
17643,591052
17646,591113
17648,592054
17650,591204
17653,591887
17655,591690
17657,592605
17660,591769
17662,592459
17665,592173
17668,593158
17670,592345
17672,592966
17675,592707
17677,592790
17679,592873
17682,593530
17684,593226
17686,593288
17689,594218
17691,593367
17693,593772
17695,593890
17698,594674
17700,593847
17702,594640
17705,594376
17708,595283
17710,594450
17713,595267
17715,594941
17717,595901
17720,595090
17722,595903
17724,595611
17727,595725
17729,595823
17731,596563
17734,596190
17736,596380
17738,597217
17741,596431
17743,596805
17745,596859
17748,597701
17751,596822
17753,597503
17756,596973
17758,597602
17760,596593
17763,597005
17765,596290
17767,596386
17770,595038
17772,595242
17774,594233
17777,593709
17779,592142
17781,592222
17783,591027
17786,590375
17788,590257
17790,588602
17794,587322
17796,586728
17798,586435
17801,584864
17803,584834
17805,583240
17808,582800
17810,581363
17812,581426
17815,580390
17817,579548
17819,578257
17822,578385
17824,577483
17826,577380
17829,575616
17831,575896
17833,575054
17837,575081
17839,574517
17841,573528
17844,573120
17846,573399
17848,572830
17851,571995
17853,572486
17855,572227
17858,571623
17860,570875
17862,571489
17865,570993
17867,570892
17869,570374
17871,571113
17874,570633
17876,571273
17879,570267
17882,571003
17884,570630
17886,571374
17889,570744
17891,570411
17893,570943
17896,571816
17898,571154
17900,570860
17903,571769
17905,572392
17907,571702
17910,571531
17912,572505
17914,572219
17917,572498
17920,572335
17922,573258
17925,572977
17927,573986
17929,573262
17932,574047
17934,573832
17936,574854
17939,574096
17941,573917
17943,574644
17946,575693
17948,574943
17950,574760
17952,575702
17955,576563
17957,575799
17959,575604
17963,576616
17965,576337
17967,576618
17970,576468
17972,577525
17974,577238
17977,578327
17979,577554
17981,578458
17984,578223
17986,579350
17988,578576
17991,578477
17993,579257
17995,580353
17998,579570
18000,579478
18002,580487
18006,581327
18008,580535
18010,580416
18013,581451
18015,581163
18017,581431
18020,581256
18022,582189
18024,581903
18027,582877
18029,581938
18031,582641
18034,582199
18036,583184
18038,582214
18040,582061
18043,582371
18045,583270
18048,582245
18051,582115
18053,582645
18055,583076
18058,582064
18060,581967
18062,582284
18065,581886
18067,581699
18069,581687
18072,581853
18074,581570
18076,582386
18079,581315
18081,581395
18083,581133
18086,581953
18088,580927
18091,581024
18094,580627
18096,581611
18098,580537
18101,580667
18103,580506
18105,581283
18108,580227
18110,580447
18112,580231
18115,580043
18117,580066
18119,580419
18122,580081
18124,579951
18126,581004
18128,580006
18131,579999
18134,580007
18136,581061
18139,580073
18141,580551
18143,580201
18146,581289
18148,580378
18150,580933
18153,580406
18155,581706
18157,580743
18160,581359
18162,580798
18164,581009
18167,581261
18169,581936
18171,581376
18174,581533
18177,582713
18179,581867
18182,581942
18184,582135
18186,583345
18189,582443
18191,583166
18193,582855
18196,584066
18198,583177
18200,583841
18203,583334
18205,584813
18207,583974
18210,584736
18212,584121
18214,584351
18216,585608
18220,585499
18222,584979
18224,585247
18227,586466
18229,585580
18231,585819
18234,586031
18236,587236
18238,586416
18241,587200
18243,586827
18245,588054
18248,587244
18250,588027
18252,587489
18255,588896
18257,588016
18259,588733
18263,588172
18265,588411
18267,589568
18270,589482
18272,588948
18274,589183
18277,590333
18279,589447
18281,589579
18284,589851
18286,590968
18288,590072
18291,590895
18293,590567
18295,591583
18298,590682
18300,591445
18302,590827
18305,592042
18308,591208
18310,592006
18312,591408
18315,591821
18317,592583
18319,592493
18322,591910
18324,592453
18326,593016
18329,592235
18331,592481
18333,593068
18336,593444
18338,592820
18340,593610
18343,593676
18345,593916
18348,593260
18351,594116
18353,593549
18355,594463
18358,593844
18360,594719
18362,594152
18365,594925
18367,594997
18369,595340
18372,594808
18374,595672
18376,595658
18379,595150
18381,595568
18383,596448
18386,596304
18388,595773
18391,596730
18393,597110
18396,596858
18398,596329
18400,597167
18403,596614
18405,597088
18407,596605
18410,597251
18412,596492
18414,597252
18417,596580
18419,596208
18421,595210
18424,595646
18426,594689
18428,593678
18432,592634
18434,592823
18436,591636
18439,590355
18441,590461
18443,589239
18446,587956
18448,586691
18450,586707
18453,585436
18455,584288
18457,583089
18460,583190
18462,581896
18464,582201
18467,580993
18469,580026
18471,578883
18475,579240
18477,578100
18479,577043
18481,576229
18484,576666
18486,575662
18488,574678
18491,575131
18493,574659
18495,573705
18498,572955
18500,573432
18502,572576
18505,573219
18507,571756
18509,572327
18512,571547
18514,572352
18516,571571
18520,571710
18522,571005
18524,571810
18527,571220
18529,570772
18531,570839
18534,571736
18536,571194
18538,570878
18541,571556
18543,572047
18545,571504
18548,571221
18550,571922
18552,571512
18555,572555
18557,571932
18560,572530
18562,572166
18565,573303
18567,572799
18569,573308
18572,572981
18574,574114
18576,573677
18579,573748
18581,573901
18583,575010
18586,574606
18588,574768
18590,575004
18593,575998
18595,575580
18597,575760
18600,575932
18603,575777
18605,576944
18608,576829
18610,576852
18612,576753
18615,577965
18617,577588
18619,577860
18622,577845
18624,579035
18626,578634
18629,579024
18631,578932
18633,580163
18636,579767
18638,580253
18640,579957
18643,581337
18646,580903
18648,581368
18650,581052
18653,581167
18655,582382
18657,582509
18660,582076
18662,582160
18664,583375
18667,582938
18669,582880
18671,582886
18674,584032
18676,583499
18678,583964
18681,583277
18683,584445
18685,583825
18689,584159
18691,583414
18693,584435
18696,583720
18698,584022
18700,583150
18703,583068
18705,584057
18707,583595
18710,582726
18712,582547
18714,583597
18717,582847
18719,582263
18721,582074
18724,583055
18726,582297
18728,582603
18732,581563
18734,582485
18736,581756
18738,582082
18741,581142
18743,581964
18745,581242
18748,581592
18750,580698
18752,580568
18755,581529
18757,581200
18759,580364
18762,580258
18764,581237
18766,580604
18769,580165
18771,580191
18774,581177
18777,580455
18779,580924
18781,580130
18784,581204
18786,580587
18788,581053
18791,580189
18793,580331
18795,580700
18798,581285
18800,580475
18802,580667
18805,581698
18807,581647
18809,580949
18812,581135
18814,582058
18817,581594
18820,581363
18822,581757
18824,582545
18826,582130
18829,582730
18831,582515
18833,583165
18836,582794
18838,583418
18840,582742
18843,583272
18845,583544
18847,584188
18850,583500
18852,584124
18854,584513
18857,584990
18860,584303
18862,585026
18865,585275
18867,585076
18869,585153
18872,585907
18874,586091
18876,585943
18879,586667
18881,586809
18883,586878
18886,586713
18888,587503
18890,586855
18893,587686
18895,587613
18897,588334
18900,587719
18903,588619
18905,588479
18908,589093
18910,588469
18912,589383
18914,589198
18917,589117
18919,589241
18921,590261
18924,589982
18926,589890
18928,590638
18931,591001
18933,590628
18935,590597
18938,591355
18940,590698
18942,591700
18946,591225
18948,592020
18950,591271
18953,592320
18955,591899
18957,592600
18960,591924
18962,592979
18964,592496
18967,592514
18969,592572
18971,593588
18974,593161
18976,593078
18978,593865
18981,594242
18983,593799
18985,593755
18989,594492
18991,593783
18993,594887
18996,594396
18998,595232
19000,594462
19002,595584
19005,595120
19007,595859
19009,595183
19012,596269
19014,595806
19016,595773
19019,595841
19021,596865
19023,596388
19026,596355
19028,597080
19031,597268
19034,596733
19036,596556
19038,597114
19041,596146
19043,596949
19045,595773
19048,596121
19050,594824
19052,595442
19055,594342
19057,593638
19059,592102
19062,592431
19064,591151
19066,590411
19069,588510
19072,588729
19074,587351
19077,586673
19079,586201
19081,584652
19084,583602
19086,582952
19088,582453
19090,581114
19093,581479
19095,579747
19097,579177
19100,578009
19102,578407
19104,577244
19107,576358
19109,575282
19111,575883
19115,574794
19117,574665
19119,573039
19122,573693
19124,572839
19126,572839
19129,572191
19131,571415
19133,571359
19136,571565
19138,570890
19140,570228
19143,571129
19145,570798
19147,570060
19150,569537
19152,570573
19154,569975
19158,569702
19160,569356
19162,570358
19165,569841
19167,570438
19169,569453
19171,570627
19174,570112
19176,570821
19178,570033
19181,569804
19183,570585
19185,571347
19188,570557
19190,570409
19192,571700
19195,572059
19197,571367
19200,571178
19203,572470
19205,572144
19207,572228
19210,572065
19212,573358
19214,573035
19217,573812
19219,573036
19221,574359
19224,573988
19226,574796
19228,574048
19231,573924
19233,574923
19235,575742
19238,575058
19240,574949
19243,576249
19246,576803
19248,576052
19250,575962
19253,577281
19255,577011
19257,577152
19259,577109
19262,578414
19264,578123
19266,578990
19269,578287
19271,579605
19273,579401
19276,580293
19278,579544
19280,579511
19283,580603
19286,581427
19288,580723
19291,580662
19293,582050
19295,582473
19298,581757
19300,581668
19302,582897
19305,582472
19307,582462
19309,582394
19312,583472
19314,583000
19316,583751
19319,582791
19321,583697
19323,583224
19326,583869
19329,582976
19331,582848
19334,583068
19336,583738
19338,582705
19341,582641
19343,583242
19345,583425
19348,582422
19350,582389
19352,582795
19354,582350
19357,581922
19359,582013
19361,582272
19364,581860
19366,582530
19368,581441
19372,581765
19374,581370
19376,582025
19379,581031
19381,581271
19383,581021
19386,581703
19388,580683
19390,581002
19393,580968
19395,581460
19397,580487
19400,580831
19402,580809
19404,580560
19407,580415
19409,580861
19411,580699
19415,580621
19417,581404
19419,580514
19422,580882
19424,580850
19426,581623
19429,580741
19431,581339
19433,581109
19435,581913
19438,581155
19440,581787
19442,581519
19445,582451
19447,581626
19449,582316
19452,582065
19454,582195
19457,582278
19460,582919
19462,582641
19464,582769
19467,583754
19469,582895
19471,583423
19474,583556
19476,584473
19478,583678
19481,584387
19483,584353
19485,585226
19488,584467
19490,585236
19492,585032
19495,586102
19497,585404
19500,586133
19503,585845
19505,585998
19507,586265
19510,587043
19512,586766
19514,586904
19517,587821
19519,587128
19521,587623
19523,587816
19526,588742
19528,588022
19530,588796
19533,588684
19535,589612
19537,588798
19540,589683
19543,589331
19545,590418
19548,589670
19550,590464
19552,590202
19555,590394
19557,590456
19559,591249
19562,590928
19564,591151
19566,591941
19569,591164
19571,591664
19573,591893
19576,592575
19578,591832
19580,592720
19584,592729
19586,593304
19588,592571
19591,593408
19593,593100
19595,593914
19598,593261
19600,594129
19602,593763
19605,594291
19607,593865
19609,594775
19611,594457
19614,594949
19616,595047
19618,594504
19621,595038
19623,595658
19625,595645
19629,595167
19631,596048
19633,596527
19636,596323
19638,595874
19640,596810
19643,596536
19645,596974
19647,596607
19650,597580
19652,597258
19654,598071
19657,597655
19659,598245
19661,597936
19664,598795
19666,598300
19668,597958
19672,598606
19674,599450
19676,598758
19679,598427
19681,599287
19683,599582
19686,598611
19688,598108
19690,598679
19693,597900
19695,597075
19697,596206
19699,596432
19702,595364
19704,595482
19706,593880
19709,592760
19712,591508
19714,591473
19717,589653
19719,588448
19721,587092
19724,587089
19726,585382
19728,584202
19731,584214
19733,583134
19735,581487
19738,580460
19740,580641
19742,579461
19745,578118
19747,577174
19749,577451
19752,576471
19755,576823
19757,575356
19760,574910
19762,573968
19764,574464
19767,573095
19769,572371
19771,572107
19774,572655
19776,571368
19778,570796
19780,571354
19783,571355
19785,570139
19787,569713
19790,570421
19792,569812
19794,569468
19798,569094
19800,569864
19802,569382
19805,570266
19807,569246
19809,569788
19812,569394
19814,570338
19816,569417
19819,569274
19821,569726
19823,570745
19826,569840
19828,569777
19830,570493
19833,571308
19835,570490
19837,570547
19841,571196
19843,571031
19845,571283
19848,571414
19850,571972
19852,571842
19855,573017
19857,572176
19859,572842
19862,572781
19864,573915
19866,573101
19868,573448
19871,573718
19873,574854
19875,574088
19878,574503
19880,574694
19883,575857
19886,575099
19888,575462
19890,575584
19893,575692
19895,576101
19897,576606
19900,576580
19902,576717
19904,577983
19907,577179
19909,577695
19911,577930
19914,579116
19916,578388
19918,579038
19921,579096
19923,580326
19926,579585
19929,580281
19931,580020
19933,581429
19936,580645
19938,581392
19940,580939
19943,581211
19945,582419
19947,582242
19950,581741
19952,581941
19954,583089
19956,582184
19959,582184
19961,582339
19963,583358
19966,582432
19969,582945
19971,582323
19974,583326
19976,582300
19978,582795
19981,582044
19983,583064
19985,581892
19988,582353
19990,581554
19992,581579
19995,582440
19997,581797
19999,580935
20002,580906
20004,581774
20006,580699
20009,580356
20012,580309
20014,581252
20017,580130
20019,580570
20021,579709
20024,580677
20026,579503
20028,580061
20031,579263
20033,580131
20035,579088
20038,579621
20040,578891
20042,578939
20044,579846
20047,579374
20049,578679
20051,578730
20055,579728
20057,578725
20059,578621
20062,578783
20064,579752
20066,578782
20069,579455
20071,578961
20073,579961
20076,579009
20078,579743
20080,579081
20083,580278
20085,579419
20087,580084
20090,579484
20092,579834
20094,580700
20098,580554
20100,580011
20102,580432
20105,581093
20107,580312
20109,580513
20112,581086
20114,581712
20116,581060
20119,581845
20121,581899
20123,582348
20126,581726
20128,582621
20130,582113
20132,583202
20135,582609
20137,583480
20140,582967
20143,583677
20145,583943
20147,584286
20150,583808
20152,584572
20154,584721
20157,584233
20159,584644
20161,585543
20164,585559
20166,585079
20168,586041
20171,586475
20173,586451
20175,586101
20178,587029
20180,586560
20183,587270
20186,586876
20188,587778
20190,587268
20193,588261
20195,587966
20197,588521
20200,588037
20202,589038
20204,588671
20207,588337
20209,588772
20211,589745
20214,589363
20216,589004
20218,589896
20220,590433
20224,590052
20226,589654
20228,590582
20231,590027
20233,591071
20235,590286
20238,591218
20240,590654
20242,591734
20245,591327
20247,591890
20249,591377
20252,592464
20254,591936
20256,591579
20259,592034
20261,593083
20263,592657
20267,592273
20269,593266
20271,593892
20274,593406
20276,593039
20278,594030
20281,593526
20283,594634
20285,593801
20288,594660
20290,594197
20292,595234
20295,594714
20297,595171
20299,594596
20302,595555
20304,594925
20306,594363
20308,594238
20312,595000
20314,594152
20316,593379
20319,593764
20321,593096
20323,591930
20326,590929
20328,591008
20330,589726
20333,589948
20335,587472
20337,587374
20340,586017
20342,586199
20344,584738
20347,583460
20349,582161
20352,582395
20355,581059
20357,580086
20359,578654
20362,578965
20364,577627
20366,576929
20369,576624
20371,576054
20373,574858
20376,574289
20378,573884
20380,573075
20383,573551
20385,572150
20387,571691
20389,570985
20392,571634
20395,570670
20397,569984
20400,569484
20402,570262
20404,569432
20407,569334
20409,568485
20411,569358
20414,568592
20416,568704
20418,568238
20421,568975
20423,568306
20425,568479
20428,567987
20430,567862
20432,568902
20435,568647
20438,568177
20440,568104
20443,569171
20445,568669
20447,568560
20450,568570
20452,569789
20454,569302
20457,569746
20459,569278
20461,570494
20464,570016
20466,570544
20468,569970
20471,570169
20473,570952
20475,571543
20477,570938
20481,571075
20483,572351
20485,572515
20488,571960
20490,572046
20492,573314
20495,572932
20497,573040
20499,573146
20502,574438
20504,574041
20506,574696
20509,574228
20511,575549
20513,575161
20516,575825
20518,575290
20520,575503
20524,576396
20526,577134
20528,576496
20531,576794
20533,578124
20535,578422
20538,577834
20540,578122
20542,579379
20545,579059
20547,579111
20549,579345
20552,580564
20554,580142
20556,580786
20559,580288
20561,581561
20563,581089
20566,581635
20569,580892
20571,581098
20573,581635
20576,582202
20578,581387
20580,581462
20583,582465
20585,582301
20587,581417
20590,581553
20592,582383
20594,581612
20597,581077
20599,581228
20601,581956
20604,581274
20606,581644
20609,580804
20612,581366
20614,580699
20616,581077
20619,580079
20621,580270
20623,580023
20626,580347
20628,579403
20630,579682
20633,580002
20635,579795
20637,578804
20640,579203
20642,579343
20644,578829
20647,578352
20649,578767
20652,578890
20654,578455
20657,578918
20659,578563
20661,578569
20664,578201
20666,578751
20668,577890
20671,578495
20673,578124
20675,578666
20678,577828
20680,578533
20682,578427
20685,578803
20687,578006
20689,578796
20692,578570
20695,578475
20697,578323
20700,579194
20702,578947
20704,578784
20707,579487
20709,579614
20711,579315
20714,579281
20716,580018
20718,579292
20721,580274
20723,579881
20725,580684
20728,579940
20730,580972
20732,580648
20736,581399
20738,580698
20740,581824
20742,581459
20745,581426
20747,581554
20749,582655
20752,582312
20754,582281
20756,583103
20759,582362
20761,583142
20763,583177
20766,583935
20768,583315
20770,584409
20773,584013
20775,584885
20777,584216
20781,585272
20783,584913
20785,585760
20788,585059
20790,586153
20792,585813
20795,585767
20797,585933
20799,587061
20802,586679
20804,586640
20806,587517
20809,586760
20811,587487
20813,587501
20816,588285
20818,587581
20820,588666
20824,588217
20826,589086
20828,588386
20830,589455
20833,589046
20835,589834
20837,589087
20840,590261
20842,589814
20844,589840
20847,589831
20849,590920
20851,590496
20854,590616
20856,591215
20858,590565
20861,591251
20864,591460
20866,591847
20869,591298
20871,592419
20873,592240
20876,592546
20878,591991
20880,593177
20883,592786
20885,593318
20887,592777
20890,593967
20892,593599
20894,594008
20897,593469
20899,594680
20901,594250
20904,594662
20907,594499
20909,594005
20912,594645
20914,595049
20916,594653
20918,594065
20921,595018
20923,594539
20925,593798
20928,592965
20930,593652
20932,592585
20935,591386
20937,590253
20939,590581
20942,589255
20944,589023
20946,586243
20950,586499
20952,585131
20954,584755
20957,583157
20959,581953
20961,580929
20964,580727
20966,579079
20968,577981
20971,578365
20973,577088
20975,575583
20978,574580
20980,575066
20982,573920
20985,572570
20987,571674
20989,572304
20993,571191
20995,571337
20997,569248
20999,569901
21002,569004
21004,569298
21006,568007
21009,567369
21011,567370
21013,567760
21016,566650
21018,566106
21020,566981
21023,566761
21025,565702
21027,565281
21030,566295
21032,565630
21035,565261
21038,564900
21040,565999
21042,565445
21045,566158
21047,565219
21049,566063
21052,565605
21054,566327
21056,565494
21059,565261
21061,566048
21063,566823
21066,565948
21068,565812
21070,567099
21073,567491
21075,566655
21078,566566
21081,567832
21083,567450
21085,567466
21087,567360
21090,568622
21092,568250
21094,569066
21097,568303
21099,569533
21101,569134
21104,569999
21106,569197
21108,569273
21111,570086
21113,570880
21115,570160
21118,570266
21121,571269
21123,571830
21126,571053
21128,571320
21130,572158
21133,571877
21135,572068
21137,572382
21140,573073
21142,572969
21144,573895
21147,573168
21149,574094
21151,574027
21154,575033
21156,574348
21158,574763
21161,575174
21164,576191
21166,575446
21169,575957
21171,576322
21173,577141
21175,576424
21178,576902
21180,577067
21182,577044
21185,577153
21187,577627
21189,577606
21192,577511
21194,578385
21196,577531
21199,577877
21201,577798
21203,578519
21207,577623
21209,578015
21211,577669
21214,578339
21216,577417
21218,577852
21221,577492
21223,578061
21225,577114
21228,577508
21230,577077
21232,576963
21235,576634
21237,577058
21239,576636
21242,576463
21244,577173
21246,576115
21250,576102
21252,576006
21254,576744
21257,575754
21259,576223
21261,575648
21263,576345
21266,575406
21268,575884
21270,575424
21273,576035
21275,575146
21277,575689
21280,575296
21282,575203
21284,575072
21287,575712
21289,575200
21292,575225
21295,576017
21297,575147
21299,575367
21302,575361
21304,576229
21306,575328
21309,576047
21311,575700
21313,576568
21316,575712
21318,576450
21320,576033
21323,577006
21325,576226
21327,576988
21330,576630
21332,576759
21335,577622
21338,577612
21340,577235
21342,577418
21345,578238
21347,577511
21349,578014
21351,578201
21354,579011
21356,578380
21358,579132
21361,579073
21363,579772
21365,579125
21368,579871
21370,579651
21372,580612
21376,579956
21378,580790
21380,580510
21383,580864
21385,581324
21387,581685
21390,581372
21392,581935
21394,582186
21397,581668
21399,582258
21401,582786
21404,582983
21406,582523
21408,583383
21411,583750
21413,583773
21415,583324
21419,584273
21421,583950
21423,584535
21426,584119
21428,585027
21430,584693
21433,585517
21435,585254
21437,585843
21439,585529
21442,586313
21444,585956
21446,585607
21449,586234
21451,587098
21453,586649
21456,586310
21458,587213
21460,587775
21464,587228
21466,586939
21468,587909
21471,587672
21473,587897
21475,587639
21478,588593
21480,588305
21482,589256
21485,588620
21487,589332
21498,590024
21499,589688
21500,589688
21502,590704
21505,590004
21507,589820
21509,590757
21511,590506
21513,591497
21515,590721
21517,590603
21519,591515
21520,591186
21522,592216
21524,591381
21526,591178
21528,592034
21530,591664
21532,592595
21534,591704
21537,592076
21539,591576
21541,592309
21544,591169
21547,590530
21549,590179
21552,590544
21554,589096
21556,588132
21559,588345
21561,587285
21563,585599
21566,584431
21568,584402
21570,583134
21573,581392
21575,580221
21577,580208
21580,578951
21582,579044
21584,577280
21587,576244
21590,575162
21592,575316
21595,573593
21597,572704
21599,571790
21602,572072
21604,570554
21606,569707
21608,569913
21611,569279
21613,567900
21615,567225
21618,567393
21620,566604
21622,567102
21625,565320
21627,565456
21629,564822
21633,565494
21635,564233
21637,564125
21640,563672
21642,564438
21644,563211
21647,563133
21649,562946
21651,563770
21654,562764
21656,562845
21658,562947
21661,563572
21663,562606
21665,562836
21668,562863
21670,562747
21672,563715
21676,563122
21678,563076
21680,563062
21683,564165
21685,563278
21687,563633
21690,563645
21692,564777
21694,563924
21696,564447
21699,564378
21701,565523
21703,564724
21706,565252
21708,565013
21710,566331
21713,565491
21715,566119
21718,565800
21721,566011
21723,567137
21725,567025
21728,566683
21730,566854
21732,567985
21735,567256
21737,567491
21739,567710
21742,568874
21744,568061
21746,568848
21749,568590
21751,569787
21753,569035
21756,569758
21758,569320
21761,570831
21764,570093
21766,570884
21768,570408
21771,570664
21773,571927
21775,571984
21778,571526
21780,571779
21782,573035
21784,572290
21787,572581
21789,572871
21791,574061
21794,573266
21796,574014
21798,573659
21801,574830
21804,573932
21806,574708
21809,574082
21811,575284
21813,574384
21816,574976
21818,574316
21820,574401
21823,575474
21825,575048
21827,574348
21830,574448
21832,575373
21834,574350
21837,574138
21839,574122
21841,575081
21844,573999
21847,574511
21849,573760
21852,574620
21854,573578
21856,574075
21859,573216
21861,574175
21863,573030
21866,573551
21868,572706
21870,572831
21872,573580
21875,573032
21877,572282
21879,572412
21882,573154
21884,572132
21886,571898
21890,572229
21892,572772
21894,571866
21897,572508
21899,572161
21901,572566
21904,571708
21906,572389
21908,571666
21911,572142
21913,571663
21915,572405
21918,571703
21920,572340
21922,572581
21925,572630
21927,571998
21929,572648
21933,572771
21935,572211
21937,572408
21940,573151
21942,573215
21944,572587
21947,573426
21949,573679
21951,573645
21954,573147
21956,573968
21958,573430
21960,574332
21963,573797
21965,574707
21967,574202
21970,575079
21972,574956
21975,575424
21978,574928
21980,575921
21982,575663
21985,575341
21987,575751
21989,576821
21992,576483
21994,576138
21996,577049
21999,577586
22001,577278
22003,576981
22006,577898
22008,577430
22010,578488
22013,577809
22016,578717
22018,578223
22021,579315
22023,578924
22025,579500
22028,579054
22030,580044
22032,579732
22035,579350
22037,579768
22039,580894
22042,580469
22044,580119
22046,581064
22048,581695
22051,581263
22053,580934
22055,581810
22059,581368
22061,582414
22063,581666
22066,582550
22068,582056
22070,583116
22073,582644
22075,583238
22077,582754
22080,583825
22082,583345
22084,583006
22087,583391
22089,584437
22091,583906
22094,583603
22096,584556
22098,585138
22102,584675
22104,584402
22106,585237
22109,584750
22111,585869
22113,585095
22116,585940
22118,585506
22120,586587
22123,586124
22125,586644
22127,586238
22130,587342
22132,586836
22134,586717
22136,586838
22139,587855
22141,587346
22144,587249
22147,587573
22149,588113
22151,587411
22154,587131
22156,587175
22158,586493
22161,587234
22163,585860
22165,585523
22168,584537
22170,584959
22172,583796
22175,582379
22177,581342
22179,581585
22182,580229
22184,579533
22187,577485
22190,577736
22192,576410
22194,575723
22197,574754
22199,573732
22201,572810
22204,572214
22206,571142
22208,570319
22211,570694
22213,569126
22215,568147
22217,567436
22220,567895
22222,566775
22224,565483
22227,564915
22230,565551
22232,564483
22235,564407
22237,562956
22239,563683
22242,562811
22244,562819
22246,561887
22249,561550
22251,561607
22253,561768
22256,560857
22258,560657
22260,561584
22263,561183
22265,560373
22267,560234
22270,561243
22273,560644
22275,560240
22278,560288
22280,561392
22282,560797
22285,561224
22287,560513
22289,561655
22292,561189
22294,561693
22296,560976
22299,561046
22301,561774
22303,562382
22305,561682
22308,561782
22310,563020
22312,563109
22316,562478
22318,562572
22320,563833
22323,563417
22325,563376
22327,563562
22330,564719
22332,564294
22334,564879
22337,564399
22339,565615
22341,565175
22344,565832
22346,565119
22348,565398
22351,566137
22353,566784
22355,566145
22359,566343
22361,567576
22363,567794
22366,567159
22368,567433
22370,568681
22373,568234
22375,568386
22377,568676
22380,569881
22382,569487
22384,570156
22387,569965
22389,571022
22391,570713
22393,571349
22396,570740
22398,571167
22401,571715
22404,572364
22406,571697
22408,572190
22411,572883
22413,573090
22415,572387
22418,572856
22420,573366
22422,572945
22425,572630
22427,573114
22429,573382
22432,572938
22434,573395
22436,572980
22439,573063
22441,572651
22444,573061
22447,572112
22449,572580
22451,572132
22454,572568
22456,571590
22458,572135
22461,571940
22463,571999
22465,571010
22468,571581
22470,571280
22472,570843
22475,570417
22477,570974
22479,570608
22481,570258
22484,570712
22487,569829
22489,570080
22492,569783
22494,570282
22496,569366
22499,570111
22501,569372
22503,569901
22506,569063
22508,569847
22510,569328
22513,569796
22515,568941
22517,569768
22520,569291
22522,569123
22524,568912
22528,569857
22530,569373
22532,569282
22535,569935
22537,569099
22539,569624
22542,569507
22544,570216
22546,569443
22549,570422
22551,569907
22553,570638
22556,569858
22558,570900
22560,570507
22563,571202
22565,570480
22567,571477
22569,571089
22573,571054
22575,571154
22577,572192
22580,571811
22582,571796
22584,572518
22587,571861
22589,572496
22591,572487
22594,573262
22596,572571
22598,573679
22601,573296
22603,574046
22605,573381
22608,574501
22610,574074
22612,574917
22616,574228
22618,575273
22620,574945
22623,574961
22625,575002
22627,576104
22630,575682
22632,575781
22634,576461
22637,575814
22639,576494
22641,576616
22644,577221
22646,576596
22648,577679
22651,577473
22653,577929
22656,577318
22658,578407
22661,578011
22663,578522
22665,577932
22668,579095
22670,578661
22672,579001
22675,578596
22677,579759
22679,579316
22682,579727
22684,579747
22686,579283
22689,580035
22691,580479
22693,580341
22696,579922
22699,581127
22701,581269
22704,581129
22706,580677
22708,581905
22711,581521
22713,581784
22715,581446
22718,582633
22720,582221
22722,582886
22725,582176
22727,583406
22729,582918
22732,583565
22734,583004
22736,582673
22739,583313
22742,583926
22744,583208
22746,582764
22749,583844
22751,583532
22753,582540
22756,581920
22758,582732
22760,581818
22763,580694
22765,579825
22767,580384
22770,579274
22772,579239
22774,577714
22777,577111
22779,575874
22781,575784
22785,574177
22787,573186
22789,572288
22792,572225
22794,570619
22796,569684
22799,570073
22801,568910
22803,567393
22806,566492
22808,566962
22810,565914
22813,564496
22815,563813
22817,564361
22820,563309
22822,563493
22824,562144
22827,562089
22830,561228
22832,561494
22834,560220
22837,559632
22839,559612
22841,560100
22844,558888
22846,558416
22848,559268
22851,559075
22853,558048
22855,557670
22858,558630
22860,558039
22862,557630
22865,557384
22867,558410
22870,557847
22873,558518
22875,557621
22877,558503
22880,558049
22882,558772
22884,557937
22887,557787
22889,558460
22891,559261
22894,558456
22896,558412
22898,559429
22901,559857
22903,559116
22905,559208
22908,560138
22910,559895
22913,559970
22916,560141
22918,560957
22920,560687
22922,561607
22925,560818
22927,561742
22929,561524
22932,562446
22934,561736
22936,562022
22939,562476
22941,563327
22943,562594
22946,563033
22948,563518
22950,564347
22953,563644
22956,564099
22958,564442
22961,564458
22963,564705
22965,565234
22968,565532
22970,565514
22972,566523
22975,565856
22977,566621
22979,566786
22982,567729
22984,567041
22986,567725
22989,567883
22991,568876
22993,568176
22996,568780
22999,568753
23001,569804
23003,569074
23006,569666
23008,569506
23010,569544
23013,569592
23015,570184
23017,569851
23020,569826
23022,570712
23024,569828
23027,569987
23029,569913
23031,570640
23034,569690
23036,570230
23038,569706
23042,570421
23044,569426
23046,569873
23049,569429
23051,569963
23053,568978
23056,569478
23058,569036
23060,568867
23063,569570
23065,569090
23067,568531
23070,568519
23072,569177
23074,568165
23077,568167
23079,568081
23081,568762
23085,567811
23087,568351
23089,567721
23091,568445
23094,567445
23096,568087
23098,567561
23101,568304
23103,567398
23105,567970
23108,567453
23110,567488
23112,568288
23115,567978
23117,567569
23119,567639
23122,568417
23124,567572
23127,567824
23130,567894
23132,568724
23134,567895
23137,568625
23139,568330
23141,569149
23144,568366
23146,569116
23148,568714
23151,569667
23153,568878
23155,569660
23158,569303
23160,569638
23162,570253
23165,570369
23168,570003
23170,570400
23173,570861
23175,570251
23177,570741
23179,571289
23182,571560
23184,571007
23186,571889
23189,572208
23191,572348
23193,571855
23196,572699
23198,572389
23200,573090
23203,572645
23205,573512
23207,573185
23211,573824
23213,573815
23215,574331
23218,574050
23220,574768
23222,574632
23225,574253
23227,574825
23229,575665
23232,575343
23234,574991
23236,575917
23239,576479
23241,576059
23243,575758
23246,576669
23248,576385
23250,576739
23254,576473
23256,577371
23258,577065
23261,577935
23263,577406
23265,578045
23267,577693
23270,578674
23272,578035
23274,577772
23277,578327
23279,579308
23281,578653
23284,578340
23286,579276
23288,579900
23291,579221
23293,578954
23296,579875
23299,579605
23301,580604
23303,579589
23306,580515
23308,580286
23310,581272
23313,580560
23315,581276
23317,580944
23320,581974
23322,581208
23324,581026
23327,581665
23329,582650
23331,581888
23334,581698
23336,582630
23339,583326
23342,582524
23344,582306
23346,583235
23349,582866
23351,583786
23353,582589
23355,583398
23358,582886
23360,583611
23362,582566
23365,582607
23367,581829
23369,582301
23372,580902
23374,580098
23376,579205
23379,579456
23382,577848
23384,576806
23387,576829
23389,575663
23391,573972
23394,572972
23396,572879
23398,571659
23401,571721
23403,569099
23405,568980
23408,567916
23410,568117
23412,566463
23415,565596
23417,564641
23419,564912
23422,563388
23425,562790
23427,561734
23430,562076
23432,560686
23434,560284
23436,560080
23439,559863
23441,558589
23443,558346
23446,558082
23448,557581
23450,558244
23453,556947
23455,556699
23457,556313
23460,557082
23462,555974
23464,555796
23468,555503
23470,556422
23472,555429
23475,555606
23477,555262
23479,556245
23482,555233
23484,555543
23486,555292
23489,556258
23491,555398
23493,555905
23496,555476
23498,555580
23500,556635
23503,556288
23505,555917
23507,556032
23511,557127
23513,556420
23515,556565
23518,556648
23520,557847
23522,557070
23524,557700
23527,557414
23529,558585
23531,557824
23534,558486
23536,557921
23538,559311
23541,558509
23543,559254
23545,558725
23548,558914
23550,560096
23553,559949
23556,559447
23558,559656
23560,560824
23563,560090
23565,560183
23567,560400
23570,561572
23572,560802
23574,561548
23577,561253
23579,562434
23581,561721
23584,562499
23586,561976
23588,562277
23591,562698
23593,563502
23596,562990
23599,563310
23601,564525
23603,564527
23606,563991
23608,564253
23610,565458
23612,564662
23615,564868
23617,565107
23619,566214
23622,565444
23624,566134
23626,565677
23629,566795
23631,565860
23633,566536
23636,565894
23639,566085
23641,566068
23644,566722
23646,565925
23648,566109
23651,567018
23653,566640
23655,565833
23658,565988
23660,566829
23662,565864
23665,565650
23667,565855
23669,566557
23672,565574
23674,566133
23676,565540
23680,566096
23682,565184
23684,565752
23687,564940
23689,565305
23691,564839
23694,565417
23696,564673
23698,565100
23700,565400
23703,565148
23705,564484
23707,564986
23710,565121
23712,564384
23714,564371
23717,564917
23719,565035
23721,564354
23725,565005
23727,564982
23729,565000
23732,564424
23734,565166
23736,564508
23739,565316
23741,564630
23743,565423
23746,564803
23748,565616
23750,565510
23753,565848
23755,565271
23757,566152
23760,565949
23762,565522
23764,565775
23768,566743
23770,566533
23772,566114
23775,566979
23777,567434
23779,567128
23782,566776
23784,567654
23786,567120
23788,568216
23791,567502
23793,568446
23795,568003
23798,569025
23800,568679
23802,569339
23805,568820
23808,569922
23810,569539
23813,569201
23815,569644
23817,570659
23820,570329
23822,570064
23824,571022
23827,571564
23829,571180
23831,570896
23834,571887
23836,571359
23838,572466
23841,571772
23843,572640
23845,572098
23848,573242
23851,572833
23853,573474
23856,572982
23858,574047
23860,573680
23863,573300
23865,573728
23867,574837
23870,574407
23872,574050
23874,574993
23876,574473
23879,575135
23881,574846
23883,575748
23886,575238
23888,576293
23890,575493
23894,576439
23896,575874
23898,576898
23901,576466
23903,577022
23905,576460
23908,577549
23910,577061
23912,576837
23915,577064
23917,578194
23919,577635
23922,577534
23924,578231
23926,577762
23929,578368
23931,578323
23933,578853
23937,578394
23939,579588
23941,579029
23944,579423
23946,579162
23948,580250
23951,579803
23953,580167
23955,579864
23958,581005
23960,580512
23962,580628
23964,580519
23967,581533
23969,581022
23971,581080
23974,581020
23976,580690
23979,580979
23982,580974
23984,580557
23986,579991
23989,580780
23991,579626
23993,578768
23996,578038
23998,578506
24000,577326
24003,575683
24005,574765
24007,575077
24010,573744
24012,573192
24014,570929
24017,571191
24019,569849
24022,569368
24025,568038
24027,567162
24029,566240
24032,565857
24034,564476
24036,563801
24039,564195
24041,562741
24043,561447
24045,560796
24048,561351
24050,560232
24052,558831
24055,558338
24057,558961
24059,557963
24062,558001
24065,556397
24067,557144
24070,556265
24072,556371
24074,555355
24077,555032
24079,555132
24081,555293
24084,554356
24086,554248
24088,555180
24091,554733
24093,553921
24095,553824
24098,554833
24100,554269
24102,553798
24105,553787
24108,554846
24110,554293
24113,554777
24115,554095
24117,555198
24120,554673
24122,555193
24124,554476
24127,554580
24129,555288
24131,555781
24133,555111
24136,555235
24138,556440
24140,556473
24143,555888
24145,556043
24147,557162
24151,556732
24153,556668
24155,556815
24158,557968
24160,557553
24162,558114
24165,557450
24167,558734
24169,558317
24172,558986
24174,558248
24176,558562
24179,559158
24181,559741
24183,559077
24186,559485
24188,560320
24190,560665
24194,559993
24196,560523
24198,561216
24201,560882
24203,560904
24205,561548
24208,562176
24210,561913
24212,562694
24215,562028
24217,563263
24219,563035
24221,563766
24224,563151
24226,563859
24228,564010
24231,564765
24233,564058
24236,564719
24239,564940
24241,565472
24243,564742
24246,565422
24248,565417
24250,565238
24253,565056
24255,565787
24257,565624
24260,565420
24262,566032
24264,565219
24267,565678
24269,565379
24271,565961
24274,565039
24276,565754
24279,565100
24282,565653
24284,564743
24286,565483
24289,565049
24291,565305
24293,564449
24296,565116
24298,564612
24300,564354
24303,563940
24305,564696
24307,564168
24309,563887
24312,564421
24314,563563
24316,563749
24320,563537
24322,564105
24324,563182
24327,563969
24329,563272
24331,563808
24334,562949
24336,563806
24338,563254
24341,563720
24343,562882
24345,563782
24348,563273
24350,563124
24352,563015
24355,563920
24357,563404
24359,563304
24363,564003
24365,563208
24367,563753
24370,563737
24372,564413
24374,563639
24377,564652
24379,564117
24381,564863
24384,564106
24386,565179
24388,564758
24391,565437
24393,564720
24395,565718
24397,565344
24400,565376
24402,565420
24404,566465
24408,566024
24410,566128
24412,566835
24415,566214
24417,566846
24419,566910
24422,567614
24424,566971
24426,568067
24429,567819
24431,568396
24433,567874
24436,568904
24438,568533
24440,569173
24443,568627
24445,569756
24448,569386
24451,569739
24453,570021
24455,570635
24458,570226
24460,570542
24462,570728
24465,570267
24467,571037
24469,571466
24472,571505
24474,571026
24476,572184
24479,572288
24481,572151
24483,571718
24485,572867
24488,572540
24491,572877
24493,572444
24496,573642
24498,573231
24500,573829
24503,573501
24505,574343
24507,573951
24510,574514
24512,574079
24514,573774
24517,574598
24519,575224
24521,574659
24524,574466
24526,575613
24528,575890
24531,575277
24534,575028
24536,576196
24539,575811
24541,575911
24543,575683
24546,576889
24548,576503
24550,577234
24553,576516
24555,577621
24557,577178
24560,578019
24562,577268
24564,577071
24567,577945
24569,578756
24571,578018
24573,577852
24577,579119
24579,579486
24581,578637
24584,578440
24586,579637
24588,579167
24591,578971
24593,578660
24595,579725
24598,579140
24600,579670
24602,578548
24605,578859
24607,577950
24609,578249
24612,576889
24614,576032
24616,575474
24620,575531
24622,573860
24624,572830
24627,573226
24629,571868
24631,570188
24634,569121
24636,569418
24638,568132
24641,566407
24643,565445
24645,565848
24648,564596
24650,564622
24652,563035
24654,562585
24657,561427
24659,561499
24662,560044
24665,559265
24667,558758
24669,558989
24672,557530
24674,556916
24676,557490
24679,556882
24681,555576
24683,555067
24686,555714
24688,554872
24690,554183
24693,553869
24695,554449
24697,553794
24700,554316
24702,553221
24705,553680
24708,553186
24710,553776
24712,552781
24715,552905
24717,552983
24719,553695
24722,552802
24724,552950
24726,553343
24729,553810
24731,553012
24733,553254
24736,553633
24738,553403
24740,554269
24742,553860
24745,554127
24748,554089
24750,554901
24753,554119
24755,554749
24757,554746
24760,555706
24762,554907
24764,555447
24767,555523
24769,556451
24771,555678
24774,556276
24776,556261
24778,557252
24781,556498
24783,557188
24785,557094
24788,557162
24791,558101
24793,558058
24796,557949
24798,558037
24800,559056
24803,558355
24805,558852
24807,559012
24810,559965
24812,559306
24814,560106
24817,560135
24819,561092
24821,560437
24824,561257
24826,560998
24828,562244
24830,561574
24834,562337
24836,562137
24838,562347
24841,563311
24843,563380
24845,563150
24848,563240
24850,564200
24852,563480
24855,563828
24857,563970
24859,564802
24862,564015
24864,564692
24866,564301
24869,565101
24871,564217
24873,564821
24877,564336
24879,565068
24881,564120
24884,564725
24886,564277
24888,564186
24891,564838
24893,564456
24895,563917
24898,563825
24900,564543
24902,563503
24905,563576
24907,563441
24909,564066
24912,563056
24914,563578
24916,562997
24919,563662
24922,562650
24924,563207
24926,562676
24929,563200
24931,562223
24933,562812
24936,562254
24938,562335
24940,562880
24943,562577
24945,562055
24947,562219
24950,562688
24952,561802
24954,561967
24957,562211
24960,562529
24962,561762
24965,562489
24967,562385
24969,562585
24972,561889
24974,562609
24976,562215
24979,562787
24981,562234
24983,563001
24986,562626
24988,563181
24990,563151
24993,563441
24995,563103
24997,563720
25000,563662
25003,563201
