3001,521757
3002,521757
3004,522383
3006,521613
3008,521800
3009,520790
3011,520249
3013,521086
3015,520472
3017,520710
3019,519758
3021,519391
3023,520283
3025,519706
3027,520032
3030,519237
3032,518927
3034,519966
3036,519447
3038,519928
3040,519183
3042,518938
3044,519562
3046,520121
3049,519446
3051,519344
3053,520436
3055,520076
3057,520714
3059,520045
3062,519974
3064,520823
3066,521459
3068,520871
3070,520873
3073,521967
3075,521793
3078,522479
3080,521877
3082,521908
3084,523147
3086,523609
3088,523116
3091,523175
3093,524370
3095,524152
3097,524922
3099,524406
3101,524611
3104,525747
3106,526423
3108,525931
3110,526167
3112,527203
3115,527166
3117,527989
3120,527580
3122,527942
3124,528828
3126,528835
3128,529295
3130,529745
3133,530604
3135,530733
3137,531618
3139,531272
3141,531796
3143,532508
3146,532657
3148,533232
3150,533800
3152,534443
3154,534607
3156,535537
3159,535137
3162,535746
3164,536270
3166,536382
3168,537323
3170,537374
3172,537722
3175,537858
3177,538640
3179,538087
3181,538664
3183,538791
3185,538835
3188,539577
3190,539380
3192,539352
3194,539333
3196,539981
3198,539238
3201,539639
3204,539466
3206,539340
3208,539880
3210,539009
3212,538993
3214,538741
3217,539230
3219,538291
3221,538534
3223,538055
3225,537810
3227,538182
3230,537138
3232,536732
3234,536429
3236,536749
3238,535664
3240,535859
3243,535200
3246,534898
3248,535219
3250,534176
3252,534372
3254,533432
3256,533861
3259,532829
3261,533057
3263,532509
3265,532277
3267,532697
3269,531714
3272,532061
3274,531335
3276,531840
3278,530955
3280,531379
3282,530929
3286,530811
3288,531348
3290,530513
3292,531009
3294,530594
3296,531119
3298,530342
3301,530882
3303,530528
3305,530515
3307,531139
3309,530461
3311,530919
3314,530666
3316,531348
3318,530679
3320,531263
3322,531025
3324,531117
3328,531770
3330,531117
3332,531814
3334,531470
3336,531696
3338,531781
3340,532438
3343,532220
3345,532410
3347,533108
3349,532471
3351,533162
3353,532961
3356,533251
3358,533340
3360,534071
3362,533906
3364,534183
3366,534767
3369,534177
3372,534934
3374,534752
3376,535201
3378,535599
3380,535894
3382,535749
3385,536244
3387,536564
3389,536149
3391,536927
3393,536714
3395,537277
3398,537454
3400,537916
3402,537720
3404,538378
3406,538395
3408,538086
3411,538934
3414,538778
3416,539386
3418,539401
3420,539111
3422,539762
3424,540508
3427,540394
3429,540083
3431,540906
3433,540723
3435,541479
3437,541351
3440,540998
3442,541703
3444,542445
3446,542206
3448,541964
3450,542811
3453,542623
3456,543396
3458,543039
3460,542781
3462,543617
3464,544322
3466,543921
3469,543741
3471,544629
3473,544447
3475,545340
3477,544822
3479,544689
3482,545513
3484,546325
3486,545821
3488,545666
3490,546528
3492,546336
3495,547252
3497,546694
3500,546552
3502,547420
3504,547187
3506,547431
3508,547170
3511,547912
3513,547592
3515,548372
3517,547576
3519,547119
3521,547653
3524,547089
3526,546412
3528,545561
3530,545677
3532,544672
3534,544709
3537,543158
3539,541881
3542,541584
3544,540235
3546,539901
3548,536567
3550,536123
3553,534649
3555,534282
3557,532428
3559,531113
3561,530824
3563,529539
3566,529413
3568,527754
3570,526536
3572,525468
3574,525491
3576,524086
3579,523200
3581,523301
3584,522413
3586,522665
3588,521380
3590,520893
3592,520179
3595,520614
3597,519503
3599,518906
3601,519199
3603,518608
3605,519107
3608,518130
3610,517682
3612,517479
3614,518081
3616,517224
3618,516951
3621,517292
3623,516927
3625,517551
3628,516818
3630,516597
3632,516659
3635,517502
3637,516766
3639,516809
3641,517017
3643,516887
3645,517759
3647,517164
3650,517325
3652,517429
3654,518304
3656,517763
3658,518028
3660,518119
3663,518149
3665,519154
3667,518533
3670,518911
3672,518925
3674,520083
3677,519565
3679,519973
3681,519949
3683,520109
3685,521162
3687,520706
3689,521158
3692,521107
3694,521264
3696,521935
3698,522478
3700,522369
3702,522634
3705,523781
3707,523336
3709,523878
3712,523775
3714,524128
3716,524873
3719,525522
3721,525361
3723,525723
3725,526981
3727,526600
3729,527350
3731,527186
3734,527542
3736,528866
3738,529225
3740,528957
3742,529392
3744,530713
3747,530290
3749,531045
3751,530797
3753,531157
3756,532432
3758,532730
3761,532360
3763,532666
3765,533878
3767,533324
3769,534006
3771,533536
3773,533800
3776,534844
3778,534222
3780,534238
3782,534359
3784,535355
3786,534633
3789,535137
3791,534468
3793,534475
3795,535382
3798,534583
3800,534182
3803,534232
3805,534947
3807,534057
3809,534370
3811,533536
3813,533461
3815,534154
3818,533156
3820,533455
3822,532386
3824,533059
3826,532045
3828,532313
3831,531321
3833,531158
3835,531763
3837,530857
3840,531083
3842,530090
3845,530723
3847,529788
3849,530069
3851,529167
3853,529151
3855,529847
3857,528920
3860,529237
3862,528388
3864,529146
3866,528261
3868,528716
3870,527900
3873,528093
3875,528717
3877,527909
3879,528363
3881,527617
3884,528493
3887,527817
3889,528332
3891,527681
3893,528082
3895,528493
3897,527944
3899,528497
3902,527820
3904,528303
3906,528174
3908,528808
3910,528189
3912,528745
3915,529034
3917,528558
3919,529259
3921,528671
3923,529344
3926,529181
3929,529899
3931,529342
3933,530035
3935,530203
3937,529869
3939,530567
3941,530073
3944,530879
3946,530998
3948,531405
3950,530872
3952,531781
3954,531789
3957,531574
3959,532352
3961,531777
3963,532696
3965,532679
3968,533221
3971,532693
3973,533683
3975,533566
3977,533396
3979,534158
3981,533719
3983,534714
3986,534557
3988,534364
3990,534643
3992,535674
3994,535432
3996,535306
3999,536093
4001,535623
4003,536644
4005,536411
4007,536245
4009,536545
4013,537552
4015,537270
4017,537172
4019,537971
4021,537443
4023,538407
4026,538166
4028,538008
4030,538808
4032,539316
4034,539046
4036,538893
4038,539618
4041,539127
4043,540191
4045,539841
4047,539661
4049,540448
4051,540929
4055,540619
4057,540506
4059,541218
4061,540683
4063,541753
4065,541474
4068,541296
4070,542056
4072,541580
4074,542292
4076,542158
4078,542945
4080,542386
4083,543440
4085,543134
4087,543025
4089,543773
4091,543221
4093,543857
4097,543724
4099,544433
4101,543835
4103,544783
4105,544404
4107,544121
4110,544697
4112,543913
4114,544680
4116,543464
4118,543652
4120,542469
4122,542884
4125,541747
4127,540793
4129,540379
4131,538833
4133,538718
4135,537189
4139,535132
4141,533358
4143,533117
4145,531513
4147,530333
4149,529365
4152,527749
4154,527631
4156,526225
4158,524442
4160,523025
4162,523183
4164,521907
4167,521270
4169,520533
4171,519370
4173,519746
4175,518680
4177,518319
4180,516672
4183,517134
4185,516268
4187,516016
4189,515366
4191,514614
4194,515230
4196,514463
4198,514420
4200,513127
4202,513814
4204,513179
4206,513210
4209,512619
4211,512128
4213,512974
4215,512432
4217,512653
4219,512070
4222,512644
4225,512120
4227,512396
4229,511884
4231,511589
4233,512591
4236,512090
4238,512572
4240,512018
4242,512921
4244,512512
4246,513005
4248,512480
4251,512320
4253,513387
4255,513144
4257,513681
4259,513105
4261,513066
4264,513937
4267,514494
4269,513995
4271,513909
4273,515048
4275,514816
4278,515377
4280,514895
4282,514865
4284,515792
4286,516413
4288,515890
4290,515838
4293,517070
4295,516868
4297,517434
4299,516914
4301,516854
4303,518096
4306,518488
4308,517960
4311,517929
4313,519153
4315,518922
4317,519613
4320,519078
4322,519124
4324,520356
4326,520777
4328,520250
4330,520296
4332,521498
4335,521320
4337,522013
4339,521515
4341,521550
4343,522800
4345,522549
4348,522709
4350,522760
4353,523994
4355,523739
4357,524354
4359,523811
4362,523827
4364,524945
4366,524698
4368,524728
4370,524682
4372,525702
4374,525419
4377,526044
4379,525382
4381,525361
4383,526254
4385,525855
4387,526418
4390,525642
4392,526320
4395,525988
4397,526474
4399,525640
4401,525629
4404,526096
4406,525734
4408,526042
4410,525255
4412,525572
4414,525162
4417,525518
4419,524655
4421,524667
4423,524898
4425,524434
4427,524853
4429,523924
4432,524115
4434,523740
4436,524151
4439,523240
4441,523371
4443,523369
4446,523075
4448,523496
4450,522595
4452,522718
4454,522485
4456,522958
4459,522090
4461,522279
4463,522237
4465,522023
4467,522536
4469,521711
4471,522039
4474,521774
4476,522327
4478,521537
4481,521942
4483,521783
4485,521678
4488,522285
4490,521605
4492,522041
4494,521840
4496,522390
4498,521722
4501,522270
4503,522072
4505,522097
4507,522767
4509,522079
4511,522590
4513,522388
4516,523193
4518,522566
4520,523206
4523,523006
4525,523037
4527,523777
4530,523168
4532,523767
4534,523552
4536,524395
4538,523854
4540,524473
4543,524288
4545,524419
4547,525189
4549,524573
4551,525214
4553,525021
4555,525179
4558,525294
4560,525953
4562,525806
4564,525966
4567,526713
4569,526137
4572,526749
4574,526627
4576,526778
4578,526922
4580,527603
4582,527454
4585,527591
4587,528362
4589,527734
4591,528421
4593,528213
4595,528357
4597,529112
4600,529270
4602,529110
4604,529262
4606,530015
4609,529391
4611,530036
4614,529847
4616,530024
4618,530804
4620,530883
4622,530653
4624,530891
4627,531531
4629,530880
4631,531626
4633,531383
4635,531679
4637,532235
4639,531634
4642,532141
4644,532476
4646,532881
4648,532352
4651,533026
4653,532854
4656,533274
4658,533571
4660,533045
4662,533529
4664,534011
4666,534212
4669,533727
4671,534473
4673,534245
4675,534744
4677,534812
4679,534380
4681,535162
4684,535558
4686,535520
4688,535143
4690,535918
4692,535665
4695,536286
4698,536182
4700,535822
4702,536528
4704,536994
4706,536745
4708,536376
4711,537078
4713,536856
4715,537480
4717,537046
4719,536616
4721,537214
4723,536763
4726,536460
4728,535842
4730,536151
4732,535338
4734,535412
4737,534223
4740,533187
4742,533175
4744,532011
4746,531776
4748,528943
4750,528585
4753,527291
4755,526973
4757,525391
4759,524085
4761,523810
4763,522575
4766,522357
4768,519657
4770,519560
4772,518434
4774,518399
4776,516966
4779,516051
4782,516086
4784,515160
4786,515305
4788,514052
4790,513450
4792,512667
4795,512991
4797,511845
4799,511164
4801,511503
4803,510847
4805,511273
4808,510272
4810,510154
4812,509610
4814,510104
4816,509146
4818,508780
4820,509198
4824,508789
4826,509383
4828,508579
4830,508172
4832,508423
4834,509252
4837,508428
4839,508211
4841,508845
4843,508554
4845,509302
4847,508630
4850,508415
4852,508929
4854,509734
4856,509091
4858,508931
4860,509735
4862,509495
4866,510414
4868,509785
4870,509699
4872,510506
4874,511236
4876,510646
4879,510604
4881,511388
4883,511180
4885,512160
4887,511563
4889,511552
4892,512293
4894,513091
4896,512540
4898,512614
4900,513228
4902,513091
4904,514065
4908,513401
4910,513634
4912,514044
4914,514056
4916,514414
4918,514686
4921,515021
4923,514973
4925,515991
4927,515486
4929,515743
4931,515995
4934,515999
4936,516506
4938,516843
4940,516977
4942,517097
4944,518104
4946,517543
4950,517946
4952,517985
4954,518171
4956,519204
4958,519089
4960,519095
4963,519231
4965,520259
4967,519663
4969,520208
4971,520050
4973,520193
4976,521162
4978,521032
4980,520784
4982,520942
4984,521927
4986,521284
4988,521714
4992,521297
4994,521400
4996,522312
4998,521624
5000,521517
5002,521452
5005,522352
5007,521550
5009,521868
5011,521243
5013,521176
5015,522001
5018,521132
5020,520767
5022,520713
5024,521464
5026,520585
5028,520918
5030,520097
5033,520106
5036,520806
5038,519885
5040,520194
5042,519331
5044,520058
5047,519147
5049,519462
5051,518667
5053,518584
5055,519435
5057,518479
5060,518749
5062,517996
5064,518792
5066,517899
5068,518230
5070,517496
5073,517523
5075,518331
5078,517496
5080,517938
5082,517178
5084,518091
5086,517271
5089,517724
5091,517057
5093,517164
5095,518031
5097,517270
5099,517749
5102,517058
5104,518217
5106,517404
5108,517928
5110,517260
5112,517488
5114,518365
5117,517705
5120,518296
5122,517693
5124,517875
5126,518113
5128,518686
5131,518037
5133,518346
5135,519323
5137,518643
5139,519233
5141,518696
5144,519043
5146,519248
5148,519924
5150,519300
5152,519748
5154,520508
5157,519925
5159,520626
5161,520069
5164,520593
5166,521166
5168,521278
5170,520754
5173,521369
5175,521902
5177,521418
5179,522050
5181,521554
5183,522226
5186,522619
5188,522806
5190,522264
5192,522938
5194,523255
5196,522874
5199,523579
5201,523092
5203,523813
5206,524026
5208,523644
5210,523858
5212,524591
5215,524749
5217,524381
5219,525104
5221,524611
5223,525392
5225,525445
5228,525094
5230,525245
5232,526057
5234,526048
5236,525744
5238,526478
5241,525926
5243,526802
5245,526711
5248,526333
5250,527128
5252,527473
5254,527303
5257,526959
5259,527720
5261,527167
5263,528094
5265,527846
5267,527598
5270,528363
5272,528779
5274,528535
5276,528301
5278,529095
5280,528536
5283,529526
5285,529236
5287,529044
5289,529804
5292,529213
5294,529984
5296,529802
5299,530539
5301,529981
5303,530964
5305,530630
5307,530473
5309,531169
5312,530584
5314,531143
5316,530884
5318,531510
5320,530814
5322,531600
5325,531019
5327,530467
5329,530851
5331,529885
5334,530398
5336,528654
5338,528710
5341,527427
5343,527680
5345,526512
5347,525369
5349,525146
5351,523655
5354,523754
5356,522436
5358,521011
5360,519549
5362,519570
5364,518299
5367,517213
5369,517080
5371,515626
5373,515838
5376,514698
5378,513697
5380,512526
5383,512848
5385,511898
5387,511086
5389,511159
5391,510073
5393,510535
5396,509661
5398,509085
5400,508252
5402,508797
5404,508064
5406,507626
5409,507745
5411,506883
5413,507602
5415,506976
5417,506690
5420,506108
5422,506904
5425,506318
5427,506238
5429,506325
5431,505734
5433,506590
5435,506227
5438,506173
5440,506215
5442,506768
5444,506412
5446,506529
5448,506531
5451,506164
5453,507171
5455,506773
5457,507043
5459,506966
5462,507770
5464,507463
5467,507752
5469,507644
5471,507460
5473,508509
5475,508261
5477,508648
5480,508433
5482,508249
5484,509159
5486,509593
5488,509391
5490,509182
5493,510356
5495,510159
5497,510588
5499,510327
5501,510207
5504,511109
5506,511605
5509,511180
5511,511139
5513,512299
5515,512086
5517,512666
5519,512227
5522,512127
5524,513343
5526,513647
5528,513255
5530,513191
5532,514392
5535,514168
5537,514787
5539,514386
5541,514329
5543,515577
5545,515897
5549,515482
5551,515510
5553,516732
5555,516527
5557,517106
5559,516680
5561,516681
5564,517891
5566,517571
5568,517649
5570,517569
5572,518779
5574,518470
5577,518983
5579,518412
5581,518293
5583,519430
5585,519087
5587,518914
5591,518693
5593,519812
5595,519376
5597,519777
5599,519069
5601,518838
5603,519818
5606,519334
5608,519704
5610,518655
5612,519530
5614,519044
5616,519328
5619,518536
5621,518193
5623,519084
5625,518520
5627,518844
5629,517635
5633,518540
5635,517967
5637,518202
5639,517391
5641,517074
5643,517834
5645,517275
5648,517566
5650,516708
5652,517290
5654,516703
5656,516995
5658,516222
5661,516025
5663,516767
5665,516250
5667,516626
5669,515841
5671,516308
5675,515920
5677,516363
5679,515639
5681,515629
5683,516111
5685,515775
5687,516213
5690,515493
5692,515657
5694,515796
5696,516317
5698,515642
5700,515876
5703,516270
5705,515985
5707,516544
5709,515861
5711,516135
5713,516354
5716,516913
5719,516260
5721,516579
5723,516781
5725,516704
5727,517324
5729,516683
5732,517119
5734,517228
5736,517833
5738,517233
5740,517720
5742,517826
5745,517833
5747,518472
5749,517951
5751,518379
5753,518450
5755,519158
5758,518641
5761,519199
5763,519168
5765,519268
5767,519964
5769,519405
5771,520016
5774,519908
5776,520035
5778,520120
5780,520820
5782,520670
5784,520790
5787,521490
5789,520948
5791,521577
5793,521437
5795,521574
5797,521737
5800,522355
5803,522256
5805,522359
5807,523051
5809,522478
5811,523100
5813,522944
5816,523085
5818,523794
5820,523827
5822,523654
5824,523791
5826,524528
5829,523901
5831,524548
5833,524376
5835,524492
5837,525194
5839,525269
5842,525091
5844,525224
5847,525923
5849,525326
5851,525964
5853,525710
5855,525829
5858,526470
5860,525930
5862,526425
5864,526505
5866,527147
5868,526556
5871,527183
5873,526997
5875,527165
5877,527822
5879,527210
5881,527674
5884,527798
5886,528473
5889,527923
5891,528559
5893,528346
5895,528568
5898,529190
5900,528609
5902,529235
5904,529233
5906,529785
5908,529161
5910,529904
5913,529602
5915,529791
5917,530293
5919,529686
5921,530242
5923,529932
5926,530232
5928,529475
5931,529807
5933,529146
5935,529099
5937,528755
5940,527718
5942,527768
5944,526757
5946,525731
5948,524369
5950,524136
5952,522954
5955,522493
5957,521490
5959,520047
5961,519755
5963,518571
5965,518112
5968,515752
5970,515543
5972,514434
5975,514163
5977,513139
5979,512001
5982,512005
5984,511024
5986,510933
5988,509110
5990,509233
5992,508474
5994,508565
5997,507694
5999,506911
6001,507111
6003,506386
6005,506662
6007,505882
6010,505567
6012,504953
6014,505272
6017,504449
6019,503968
6021,504438
6024,503968
6026,504519
6028,503749
6030,503908
6032,503493
6034,504134
6036,503418
6039,503147
6041,503762
6043,503378
6045,504066
6047,503362
6049,503148
6052,503605
6054,504318
6056,503737
6059,503549
6061,504326
6063,504101
6066,504862
6068,504257
6070,504125
6072,504754
6074,505592
6076,504960
6078,504821
6081,505667
6083,505505
6085,506391
6087,505808
6089,505670
6091,506526
6094,507247
6096,506595
6098,506552
6100,507382
6103,507180
6105,508110
6108,507530
6110,507371
6112,508203
6114,508920
6116,508344
6118,508229
6120,508968
6123,508851
6125,509718
6127,509102
6129,509012
6131,509800
6133,509643
6136,509960
6138,509879
6140,510644
6142,510519
6145,511412
6147,510785
6150,510729
6152,511496
6154,511386
6156,511782
6158,511778
6160,512516
6162,512371
6165,513336
6167,512768
6169,512736
6171,513423
6173,513309
6175,514258
6178,513698
6180,514180
6182,514157
6184,515048
6187,514340
6189,514424
6192,514789
6194,514717
6196,515538
6198,514956
6200,515148
6202,515034
6204,515878
6207,515086
6209,515169
6211,515229
6213,515108
6215,515920
6217,515087
6220,515070
6222,514949
6224,515780
6226,514976
6228,515067
6231,514839
6234,514666
6236,515465
6238,514632
6240,514471
6242,514352
6244,515144
6246,514252
6249,514427
6251,514049
6253,513953
6255,514748
6257,513860
6259,514093
6262,513624
6264,514413
6266,513497
6268,513788
6270,513272
6273,513247
6276,514097
6278,513302
6280,513652
6282,513124
6284,513950
6286,513143
6289,513549
6291,512964
6293,513060
6295,513954
6297,513179
6299,513617
6301,512993
6304,514055
6306,513312
6308,513758
6310,513236
6312,513395
6315,514357
6318,513634
6320,514159
6322,513594
6324,514749
6326,514072
6328,514608
6331,514103
6333,514329
6335,515319
6337,514612
6339,515224
6341,514651
6343,514891
6346,515248
6348,515813
6350,515282
6352,515523
6354,516552
6356,515911
6360,516521
6362,515993
6364,516211
6366,516621
6368,517232
6370,516726
6373,516948
6375,517979
6377,517355
6379,518002
6381,517422
6383,517737
6385,518755
6388,518687
6390,518194
6392,518527
6394,519581
6396,518899
6398,519506
6402,519076
6404,519283
6406,520330
6408,520340
6410,519796
6412,520129
6415,521109
6417,520453
6419,521128
6421,520551
6423,520964
6425,521820
6427,521205
6430,521298
6432,521742
6434,522489
6436,521927
6438,522571
6440,522031
6444,522527
6446,523141
6448,522637
6450,522747
6452,523312
6454,523797
6457,523247
6459,523896
6461,523369
6463,523930
6465,524305
6467,523833
6469,524521
6472,524607
6474,524862
6476,524437
6478,525084
6480,524494
6482,525195
6486,525379
6488,524967
6490,525655
6492,525846
6494,525830
6496,525469
6499,526162
6501,525597
6503,526396
6505,526386
6507,526027
6509,526693
6511,526085
6514,526845
6516,526532
6518,527238
6520,526672
6522,527563
6524,527358
6528,527075
6530,527816
6532,527225
6534,528109
6536,527735
6538,528412
6541,527908
6543,528788
6545,528566
6547,528330
6549,529050
6551,528554
6553,529450
6556,528949
6558,529620
6560,529063
6562,529933
6564,529564
6566,529225
6569,529847
6572,529022
6574,529768
6576,529144
6578,528861
6580,527803
6583,528207
6585,527267
6587,526298
6589,526284
6591,524888
6593,524949
6595,523708
6598,522283
6600,520779
6602,520747
6604,519399
6606,518113
6608,517864
6611,516333
6614,516280
6616,515060
6618,513889
6620,512365
6622,512465
6625,511371
6627,510396
6629,510368
6631,509158
6633,509497
6635,508455
6637,507681
6640,506650
6642,507126
6644,506265
6646,505542
6648,505800
6650,504830
6653,505386
6656,504633
6658,504130
6660,504398
6662,504146
6664,503533
6667,503053
6669,503498
6671,502731
6673,503444
6675,503002
6677,502669
6680,503056
6682,503244
6684,502770
6686,502619
6688,502952
6690,502413
6692,503346
6695,502938
6697,502942
6700,503232
6702,502787
6704,503473
6706,503507
6709,503763
6711,503365
6713,504393
6715,504101
6717,504278
6719,504398
6722,504061
6724,504879
6726,505104
6728,505150
6730,504924
6732,506023
6734,505791
6737,506046
6739,505998
6742,505769
6744,506893
6746,506926
6748,506776
6751,506603
6753,507722
6755,507457
6757,507817
6759,507598
6761,507414
6764,508516
6766,508578
6768,508302
6770,508150
6772,509234
6774,508947
6776,509325
6779,509032
6781,508873
6784,510029
6786,509728
6788,509729
6790,509639
6793,510839
6795,510570
6797,511057
6799,510603
6801,510502
6803,511691
6806,511438
6808,511510
6810,511473
6812,512655
6814,512393
6816,512918
6818,512480
6821,512379
6823,513588
6825,513294
6828,513763
6830,513141
6832,514293
6835,513990
6837,514496
6839,513951
6841,513805
6843,514889
6845,514503
6848,514964
6850,514170
6852,515220
6854,514751
6856,515191
6858,514495
6860,514266
6863,515262
6865,514810
6867,515160
6870,514404
6872,515144
6874,514652
6877,515008
6879,514244
6881,513961
6883,514831
6885,514281
6887,514606
6890,513874
6892,514464
6894,514013
6896,514282
6898,513476
6900,513164
6902,514024
6905,513530
6907,513885
6909,513099
6912,512792
6914,513148
6916,513489
6919,512728
6921,512501
6923,513355
6925,512893
6927,513220
6929,512472
6932,512365
6934,512737
6936,513116
6938,512370
6940,512335
6942,513141
6944,512768
6947,513241
6949,512544
6951,512635
6953,513232
6956,513430
6958,512753
6961,512870
6963,513482
6965,513237
6967,513735
6969,513069
6971,513337
6974,513830
6976,514219
6978,513607
6980,513909
6982,514290
6984,514208
6986,514773
6989,514145
6991,514489
6993,514815
6995,514802
6998,514830
7000,515285
7003,515531
7005,515481
7007,516151
7009,515577
7011,516086
7013,516261
7016,516270
7018,516410
7020,516930
7022,517030
7024,517077
7026,517703
7029,517198
7031,517756
7033,517784
7035,517871
7037,518567
7040,518614
7042,518674
7045,518729
7047,519413
7049,518816
7051,519505
7053,519403
7055,519482
7058,520250
7060,520322
7062,520207
7064,520406
7066,521014
7068,520468
7071,521116
7073,520967
7075,521116
7077,521739
7079,521180
7081,521700
7084,521844
7087,522499
7089,521950
7091,522566
7093,522385
7095,522485
7097,523199
7100,522604
7102,523033
7104,523117
7106,523801
7108,523149
7110,523818
7113,523596
7115,523702
7117,524342
7119,523748
7121,524320
7123,524205
7126,524879
7129,524228
7131,524862
7133,524605
7135,524671
7137,525343
7139,524648
7142,525240
7144,525008
7146,525720
7148,525106
7150,525733
7152,525439
7155,525531
7157,526169
7159,525553
7161,526192
7163,525900
7165,526648
7168,525996
7171,526679
7173,526431
7175,526645
7177,527177
7179,526594
7181,527226
7184,527001
7186,527180
7188,527175
7190,527887
7192,527663
7194,527955
7197,528301
7199,527846
7201,528490
7203,528358
7205,528729
7207,528514
7209,529236
7213,528961
7215,529351
7217,529510
7219,528988
7221,529652
7223,529379
7226,529744
7228,529640
7230,529555
7232,529050
7234,529203
7236,528727
7239,527928
7241,528072
7243,527240
7245,527166
7247,526242
7249,525082
7251,523951
7255,523579
7257,522387
7259,521079
7261,520888
7263,519711
7265,519437
7268,518142
7270,516904
7272,515614
7274,515412
7276,514156
7278,513116
7281,513055
7283,512090
7285,512037
7287,510878
7289,509966
7291,509293
7293,509412
7297,508269
7299,507524
7301,507820
7303,507124
7305,507355
7307,506372
7310,505726
7312,506063
7314,505866
7316,504969
7318,504464
7320,504932
7323,504429
7325,504921
7327,504073
7329,503696
7331,504304
7333,504508
7335,503754
7339,503399
7341,504084
7343,503799
7345,504469
7347,503776
7349,503517
7352,504307
7354,504039
7356,504189
7358,504064
7360,504829
7362,504648
7365,505440
7367,504852
7369,504722
7371,505564
7373,505385
7375,505688
7377,505596
7380,506467
7383,506324
7385,507260
7387,506632
7389,506589
7391,507431
7394,507278
7396,508229
7398,507601
7400,508460
7402,508310
7404,509282
7407,508682
7409,508657
7411,509499
7413,509355
7425,511220
7426,511220
7426,510587
7428,510587
7430,510563
7432,511349
7434,511162
7435,512085
7437,511462
7439,511486
7441,512268
7443,512101
7445,513052
7447,512383
7449,512524
7451,513198
7453,513122
7455,514090
7457,513425
7459,513643
7461,514200
7463,514164
7465,515176
7468,514520
7470,514775
7472,515131
7474,515136
7476,516112
7478,515503
7480,515733
7482,516019
7484,516963
7486,516246
7488,516466
7491,516554
7493,516547
7495,517490
7497,516729
7499,517018
7501,516948
7504,517800
7506,517023
7508,517207
7511,517017
7513,516931
7515,517761
7517,516889
7520,517127
7522,516829
7524,517543
7526,516647
7528,516935
7530,516495
7533,516407
7535,517210
7537,516321
7539,516622
7541,516106
7543,516730
7546,515909
7548,516205
7550,515623
7553,515586
7555,516388
7557,515459
7559,515802
7562,515199
7564,515119
7566,515076
7568,515419
7570,514772
7572,514790
7575,515624
7577,514755
7579,515189
7581,514512
7583,514645
7585,514641
7588,515043
7590,514423
7592,514548
7595,515425
7597,514631
7599,515116
7601,514491
7604,514692
7606,515543
7608,515334
7610,514728
7612,514899
7614,515854
7617,515155
7619,515651
7621,515134
7623,515305
7625,516281
7627,516198
7630,515591
7632,515830
7634,516775
7636,516090
7639,516755
7641,516179
7643,516435
7646,517424
7648,516799
7650,516870
7652,517079
7654,518120
7656,517467
7659,518092
7661,517628
7663,517892
7665,518897
7667,518174
7669,518366
7672,518635
7674,519651
7676,519024
7678,519666
7681,519144
7683,519512
7685,520525
7688,519874
7690,520528
7692,520327
7694,521341
7696,520702
7698,521406
7701,520860
7703,521244
7705,522103
7707,521527
7709,522203
7711,521687
7714,522882
7716,522330
7718,523036
7720,522526
7723,523036
7725,523684
7727,523146
7730,523847
7732,523346
7734,524393
7736,523907
7738,524583
7740,524074
7743,524697
7745,525100
7747,524631
7749,525283
7751,524772
7753,525474
7756,525309
7758,526024
7760,525481
7762,526164
7764,526317
7767,525868
7769,526566
7772,525976
7774,526749
7776,526476
7778,527153
7780,526556
7782,527341
7785,527300
7787,526910
7789,527611
7791,527087
7793,527923
7795,527772
7798,528132
7800,527567
7802,528410
7804,528179
7806,527843
7809,528554
7812,528034
7814,528869
7816,528623
7818,529057
7820,528450
7822,529372
7824,529138
7827,528856
7829,529566
7831,528993
7833,529938
7835,529635
7837,529293
7840,529581
7842,530495
7844,530193
7846,529930
7848,530708
7851,530210
7854,531160
7856,530837
7858,530566
7860,530776
7862,531739
7864,531418
7866,531100
7869,531889
7871,531302
7873,532271
7875,531887
7877,531519
7879,532143
7882,532225
7884,531670
7886,531149
7888,531570
7890,530598
7892,531135
7896,530253
7898,529382
7900,529457
7902,528280
7904,527129
7906,525997
7908,525783
7911,524247
7913,524235
7915,522888
7917,521682
7919,521402
7921,519836
7924,518558
7926,517315
7928,517113
7930,515724
7932,515807
7934,514579
7938,513571
7940,513454
7942,512178
7944,511383
7946,510495
7948,510517
7950,509377
7953,509773
7955,508814
7957,508148
7959,508197
7961,507160
7963,507667
7966,506350
7968,506394
7970,505495
7972,506134
7974,505443
7976,505130
7980,505139
7982,504407
7984,505138
7986,504435
7988,504409
7990,503904
7992,504769
7995,504293
7997,504279
7999,504226
8001,503721
8003,504698
8005,504302
8008,504355
8010,504026
8012,505064
8014,504755
8016,504882
8018,504809
8022,504624
8024,505711
8026,505394
8028,505542
8030,505284
8032,506444
8034,506154
8037,506536
8039,506329
8041,506180
8043,507312
8045,507049
8047,507481
8050,507177
8052,508286
8054,508043
8056,508496
8058,508166
8060,508111
8064,509255
8066,508987
8068,509457
8070,508970
8072,510054
8074,509784
8077,510255
8079,509832
8081,509800
8083,510882
8085,510626
8087,511095
8089,510596
8092,511690
8094,511431
8096,511948
8098,511449
8100,511361
8102,512585
8105,512285
8108,512837
8110,512379
8112,513509
8114,513231
8116,513777
8118,513288
8121,513270
8123,514528
8125,514302
8127,514891
8129,514389
8131,514317
8134,515329
8136,515826
8138,515336
8140,515247
8142,516402
8144,516127
8147,516633
8150,516022
8152,515981
8154,516761
8156,517150
8158,516592
8161,516426
8163,517490
8165,517108
8167,517450
8169,516765
8171,516633
8173,517604
8176,517545
8178,516879
8180,516650
8182,517620
8184,517097
8186,517415
8189,516653
8192,516415
8194,517267
8196,517105
8198,516336
8200,516137
8203,517006
8205,516477
8207,516793
8209,516006
8211,515881
8213,516647
8215,516131
8218,515642
8220,515582
8222,516209
8224,515756
8226,516160
8228,515386
8231,515419
8233,515925
8236,515592
8238,515190
8240,515300
8242,515765
8245,515503
8247,515896
8249,515208
8251,515304
8253,515717
8255,515489
8257,515891
8260,515462
8262,515795
8264,515645
8266,516133
8268,515500
8270,515811
8273,516039
8275,515942
8278,516466
8280,516268
8282,516427
8284,516367
8287,516970
8289,516416
8291,516810
8293,516968
8295,516950
8297,517540
8299,516918
8302,517532
8304,517576
8306,518175
8308,517633
8310,518217
8312,518263
8315,518296
8317,518983
8320,518393
8322,518998
8324,519069
8326,519727
8329,519191
8331,519851
8333,519772
8335,519905
8337,520585
8339,520087
8341,520758
8344,520811
8346,521585
8348,521015
8350,521689
8352,521607
8354,521688
8357,522379
8359,521875
8361,522545
8364,522483
8366,523321
8368,522824
8371,523506
8373,523358
8375,523525
8377,524237
8379,523695
8381,524385
8383,524191
8386,525117
8388,524580
8390,525227
8392,525118
8394,525246
8396,525894
8399,525385
8401,526109
8403,525927
8406,526067
8408,526217
8410,526863
8413,526704
8415,526794
8417,527519
8419,526939
8421,527631
8423,527445
8425,527610
8428,527633
8430,528362
8432,528144
8434,528269
8436,528945
8438,528353
8441,528986
8443,528804
8445,528909
8448,529506
8450,529528
8452,529299
8455,529452
8457,530014
8459,529393
8461,530167
8463,529893
8465,530087
8467,530492
8470,530607
8472,530328
8474,530579
8476,530855
8478,530312
8480,530993
8483,530726
8485,531097
8487,531282
8489,530751
8492,531178
8494,531552
8497,531616
8499,531134
8501,531838
8503,531588
8505,532012
8507,532011
8509,531511
8512,531970
8514,532475
8516,532375
8518,532025
8520,532704
8522,532526
8525,533038
8527,532841
8529,532527
8531,533217
8534,533631
8536,533306
8539,533016
8541,533813
8543,533639
8545,534336
8547,533975
8549,533678
8552,534488
8554,534995
8556,534607
8558,534366
8560,535136
8562,534938
8564,535703
8567,535207
8569,534935
8571,535729
8573,535428
8576,535446
8578,535103
8581,535709
8583,535255
8585,535770
8587,534762
8589,534161
8591,534483
8594,533653
8596,532420
8598,531448
8600,531351
8602,530225
8604,530068
8606,528365
8609,527163
8611,526898
8613,525566
8615,525337
8617,522359
8620,522079
8623,520836
8625,520638
8627,518915
8629,517795
8631,517699
8633,516555
8636,516565
8638,514080
8640,514078
8642,513113
8644,513251
8646,511853
8648,511039
8651,511235
8653,510409
8655,510622
8657,509437
8659,509035
8662,508295
8665,508711
8667,507552
8669,507002
8671,507421
8673,506767
8675,507353
8678,506309
8680,506404
8682,505949
8684,506576
8686,505694
8688,505283
8690,505991
8693,505590
8695,506264
8697,505463
8699,505241
8701,505694
8704,506416
8707,505699
8709,505586
8711,506275
8713,506020
8715,506907
8717,506237
8720,506203
8722,506739
8724,507638
8726,506965
8728,507068
8730,507694
8732,507620
8735,508537
8737,507905
8739,508054
8741,508601
8743,509478
8745,508889
8749,509074
8751,509442
8753,509533
8755,510524
8757,509848
8759,510106
8762,510402
8764,511406
8766,510731
8768,511049
8770,511220
8772,511267
8774,512208
8777,511606
8779,511933
8781,511995
8783,512060
8785,512362
8787,512748
8791,512673
8793,512820
8795,513735
8797,513125
8799,513593
8801,513425
8804,513596
8806,513950
8808,514522
8810,514269
8812,514509
8814,515572
8816,515009
8819,515520
8821,515275
8823,515587
8825,516589
8827,516578
8829,516308
8833,516559
8835,517581
8837,516945
8839,517561
8841,517159
8843,517392
8846,518457
8848,518336
8850,517881
8852,518095
8854,519055
8856,518329
8858,518831
8861,518268
8863,518423
8865,519311
8867,518529
8869,518433
8871,518508
8875,519338
8877,518502
8879,518949
8881,518328
8883,518411
8885,519171
8888,518369
8890,518069
8892,518076
8894,518851
8896,517987
8898,518403
8900,517690
8903,517701
8905,518457
8907,517603
8909,517966
8911,517238
8913,518014
8916,517159
8919,517513
8921,516782
8923,516766
8925,517542
8927,516712
8930,517123
8932,516464
8934,517295
8936,516443
8938,516857
8940,516145
8943,516253
8945,517097
8947,516287
8949,516697
8951,516044
8953,517029
8955,516240
8958,516725
8961,516102
8963,516278
8965,517221
8967,516451
8969,516972
8972,516345
8974,516641
8976,516741
8978,517349
8980,516761
8982,517058
8985,517882
8987,517208
8989,517841
8991,517352
8993,517796
8995,517818
8997,518458
9000,517964
9003,518500
9005,519028
9007,518492
9009,519175
9011,518741
9014,519319
9016,519770
9018,520039
9020,519485
9022,520207
9024,520542
9027,520155
9029,520873
9031,520380
9033,521131
9035,521384
9037,521795
9039,521311
9042,522117
9044,522331
9047,521987
9049,522790
9051,522344
9053,523154
9056,523278
9058,522978
9060,523314
9062,524179
9064,524161
9066,523914
9069,524662
9071,524277
9073,525128
9075,525084
9077,524870
9079,525169
9081,526100
9084,525947
9086,525730
9089,526517
9091,526085
9093,527024
9095,526863
9098,526568
9100,527362
9102,527845
9104,527579
9106,527355
9108,528179
9111,527660
9113,528614
9115,528411
9117,528125
9119,528889
9121,529315
9123,529078
9126,528810
9128,529541
9131,528973
9133,529954
9135,529659
9137,529310
9140,530053
9142,529493
9144,530074
9146,529827
9148,530553
9150,529997
9153,530940
9155,530565
9157,530220
9159,530985
9161,530395
9163,530928
9165,530612
9168,531238
9170,530714
9172,531629
9175,531213
9177,530929
9179,531627
9182,531050
9184,531968
9186,531271
9188,532018
9190,531416
9192,532320
9195,531919
9197,531627
9199,532362
9201,531826
9203,532812
9205,532086
9207,532815
9210,532237
9212,533245
9214,532832
9217,532685
9219,533349
9221,532825
9224,533849
9226,533466
9228,533971
9230,533443
9232,534485
9234,534092
9237,534040
9239,534642
9241,534146
9243,535132
9245,534873
9247,535260
9249,534804
9252,535837
9254,535518
9256,535561
9259,535811
9261,535280
9263,536321
9266,535920
9268,535878
9270,535360
9272,536200
9274,535565
9276,535323
9279,535018
9281,534149
9283,534636
9285,533658
9287,533071
9289,531092
9292,531297
9294,529959
9296,529122
9298,528014
9300,526706
9303,526726
9305,525364
9308,524563
9310,523263
9312,522117
9314,520705
9316,520099
9318,518865
9321,517694
9323,517885
9325,516705
9327,516227
9329,515119
9331,514520
9334,513476
9336,513208
9338,512124
9340,511358
9342,511846
9345,510966
9347,510875
9350,509832
9352,509220
9354,509069
9356,509117
9358,508173
9360,507754
9363,508486
9365,507810
9367,507942
9369,507145
9371,506790
9373,507105
9376,507325
9378,506667
9380,506393
9382,507380
9384,506931
9387,507247
9389,506598
9392,506443
9394,507532
9396,507621
9398,507020
9400,506906
9402,508058
9405,507721
9407,508232
9409,507709
9411,507724
9413,508861
9415,509165
9418,508613
9420,508655
9422,509820
9424,509612
9426,510194
9428,509705
9431,509719
9434,510892
9436,510697
9438,510786
9440,510783
9442,511994
9444,511778
9447,512353
9449,511812
9451,511862
9453,513069
9455,512786
9457,512891
9460,512898
9462,514037
9464,513821
9466,514359
9468,513821
9470,513864
9473,514961
9476,514754
9478,515363
9480,514858
9482,515913
9484,515682
9486,516331
9489,515802
9491,515941
9493,516933
9495,516754
9497,517297
9499,517080
9502,518035
9504,517844
9506,518455
9508,518038
9510,518291
9512,519085
9515,518944
9518,519581
9520,519081
9522,520035
9524,519872
9526,520478
9528,519934
9531,520242
9533,520735
9535,520684
9537,521209
9539,520559
9541,520937
9544,521020
9546,521475
9548,520850
9550,521110
9552,521193
9554,521028
9556,521468
9560,520761
9562,521022
9564,520850
9566,521252
9568,520502
9570,520758
9573,520634
9575,520448
9577,520803
9579,520036
9581,520403
9583,520135
9586,520342
9588,519609
9590,519865
9592,519633
9594,519399
9596,519793
9598,518988
9602,519309
9604,519101
9606,519336
9608,518535
9610,518921
9612,518572
9615,518481
9617,518926
9619,518159
9621,518639
9623,518213
9625,518149
9628,517946
9630,518390
9632,518124
9634,518043
9636,518608
9638,517921
9640,518439
9644,518155
9646,518150
9648,518049
9650,518560
9652,518300
9654,518383
9657,518982
9659,518359
9661,518956
9663,518675
9665,518845
9667,519392
9670,519423
9672,519181
9674,519339
9676,519911
9678,519327
9680,520024
9683,519805
9686,519998
9688,520683
9690,520799
9692,520613
9694,520755
9696,521439
9699,520925
9701,521672
9703,521482
9705,521644
9707,522324
9709,521758
9712,522363
9714,522562
9716,523198
9718,522699
9720,523475
9722,523359
9725,523555
9728,524222
9730,523727
9732,524332
9734,524555
9736,525223
9738,524676
9741,525417
9743,525276
9745,525648
9747,526150
9749,525740
9751,526488
9754,526660
9756,527077
9758,526683
9760,527477
9762,527288
9764,527705
9767,527991
9769,527593
9772,528377
9774,528705
9776,528876
9778,528484
9780,529297
9783,529074
9785,529645
9787,529648
9789,529341
9791,530154
9793,529959
9796,530461
9798,530174
9800,530934
9802,530754
9804,531328
9806,531118
9809,530817
9811,531620
9814,531416
9816,531815
9818,531517
9820,532300
9822,532071
9825,532712
9827,532338
9829,532088
9831,532833
9833,532692
9835,533368
9838,532643
9840,533456
9842,533166
9844,533898
9846,533327
9848,533052
9851,533844
9853,533586
9856,534335
9858,533557
9860,534310
9862,534009
9864,534762
9867,534085
9869,533866
9871,534646
9873,534350
9875,535122
9877,534454
9880,535036
9882,534758
9884,535525
9886,534848
9888,534680
9890,535495
9893,535182
9895,535998
9897,535291
9900,535851
9902,535604
9904,536477
9906,535735
9909,535554
9911,536345
9913,536120
9915,536991
9917,536289
9919,536181
9922,536713
9924,537578
9926,536909
9928,536753
9930,537551
9932,537341
9935,538211
9937,537506
9939,537472
9942,538106
9944,538994
9946,538330
9948,538172
9951,538994
9953,538795
9955,539632
9957,538911
9959,538755
9961,539546
9964,539927
9966,539010
9968,538698
9970,539227
9972,538557
9974,539067
9977,537802
9979,537099
9981,537174
9984,536164
9986,534586
9988,533513
9990,533153
9993,531812
9995,531570
9997,529694
9999,528507
10001,528008
10004,526304
10006,524447
10008,523393
10011,522797
10013,521579
10015,521424
10018,518916
10020,518375
10022,517324
10025,517357
10028,515835
10030,514748
10032,513913
10035,514137
10037,512746
10039,512310
10042,511280
10044,511605
10046,510334
10049,510117
10051,509698
10053,509682
10056,508555
10058,508487
10060,508104
10063,507838
10065,508456
10067,507550
10071,507161
10073,506993
10075,507723
10078,506792
10080,506735
10082,506653
10085,507452
10087,506730
10089,507068
10092,506801
10094,507722
10096,506970
10099,507435
10101,507154
10103,508238
10106,507597
10108,508167
10110,507801
10114,508021
10116,509045
10118,508982
10120,508704
10123,508904
10125,509984
10127,509384
10130,509662
10132,509942
10134,511001
10137,510397
10139,511028
10141,510984
10144,512037
10146,511364
10148,512042
10151,511606
10153,512952
10156,512355
10159,512960
10161,512513
10163,512785
10166,513851
10168,513803
10170,513261
10173,513519
10175,514637
10177,513926
10180,514123
10182,514351
10184,515411
10187,514778
10189,515402
10191,515299
10194,516343
10196,515716
10199,516368
10202,515963
10204,517341
10206,516723
10208,517442
10211,516984
10213,517357
10215,518403
10218,518522
10220,518054
10222,518385
10225,519411
10227,518770
10229,518933
10232,519225
10234,520250
10236,519548
10240,520142
10242,519879
10244,520760
10247,520074
10249,520614
10251,519997
10254,520270
10256,520306
10258,520821
10261,520125
10263,520442
10265,521031
10268,520744
10270,520085
10272,520386
10275,520842
10277,520044
10279,519827
10283,520180
10285,520551
10287,519772
10290,520197
10292,519921
10294,520075
10296,519326
10299,519860
10301,519119
10303,519601
10306,518963
10308,519447
10310,518731
10313,519209
10315,519221
10317,519152
10320,518546
10322,519088
10324,518988
10328,518398
10330,518291
10332,518997
10335,518883
10337,518380
10339,518939
10342,519058
10344,518943
10346,518486
10349,519113
10351,518529
10353,519274
10356,518683
10358,519403
10360,518849
10363,519736
10365,519508
10368,519962
10371,519412
10373,520278
10375,520056
10378,519770
10380,520028
10382,521007
10384,520743
10387,520425
10389,521239
10391,521744
10394,521492
10396,521278
10398,522075
10401,521598
10403,522620
10405,522166
10408,522965
10411,522542
10413,523549
10416,523352
10418,523975
10420,523517
10423,524552
10425,524292
10427,524161
10430,524521
10432,525611
10434,525365
10437,525196
10439,525980
10441,526621
10444,526393
10446,526194
10448,527046
10451,526560
10454,527663
10456,527272
10459,528098
10461,527655
10463,528728
10466,528471
10468,529135
10470,528707
10472,529777
10475,529492
10477,529257
10479,529702
10482,530714
10484,530399
10486,530257
10489,531072
10491,531576
10493,531337
10497,531193
10499,531962
10501,531454
10504,532498
10506,532069
10508,532756
10511,532257
10513,533386
10515,532975
10518,533532
10520,533036
10522,534124
10525,533780
10527,533790
10529,533783
10532,534819
10534,534511
10536,534530
10540,534799
10542,534438
10544,535099
10547,535178
10549,535322
10551,534957
10554,536027
10556,535788
10558,535830
10560,535501
10563,536574
10565,536227
10567,536266
10570,535931
10572,537011
10574,536615
10577,536866
10579,536394
10582,537423
10585,537023
10587,537310
10589,537014
10592,536749
10594,537471
10596,537721
10599,537339
10601,537130
10603,538192
10606,538097
10608,537698
10610,537485
10613,538487
10615,538125
10617,537967
10620,537798
10622,538885
10625,538484
10628,538905
10630,538287
10632,539329
10635,538947
10637,539423
10639,538868
10642,538761
10644,539580
10646,539996
10648,539502
10651,539373
10653,540544
10655,540733
10658,540203
10660,540125
10662,541227
10665,540940
10668,540949
10670,540788
10673,541981
10675,541637
10677,542149
10680,541414
10682,542532
10684,542143
10687,542520
10689,541785
10691,541436
10694,541646
10696,541712
10698,540660
10701,540036
10703,540507
10705,539076
10708,537601
10711,536536
10713,536568
10716,535064
10718,532548
10720,531235
10723,531169
10725,529592
10727,528812
10729,525688
10732,525587
10734,524086
10736,523520
10739,521786
10741,520706
10743,519445
10746,519011
10748,517513
10750,516620
10754,516880
10756,515545
10758,514213
10761,513482
10763,513818
10765,512899
10768,511584
10770,511087
10772,511475
10775,510673
10777,510680
10779,509379
10782,509705
10784,509057
10786,509252
10789,508353
10791,508269
10793,508169
10797,508416
10799,507652
10801,507760
10804,508128
10806,508199
10808,507548
10811,507775
10813,508106
10815,507940
10817,507833
10820,508135
10822,508401
10824,508412
10827,508996
10829,508474
10831,509171
10834,509207
10836,509827
10839,509317
10842,509895
10844,510208
10846,510889
10849,510446
10851,511016
10853,511221
10856,512018
10858,511494
10860,512140
10863,512328
10865,512444
10867,512655
10870,513333
10872,513411
10874,513575
10877,514226
10880,513765
10882,514453
10885,514558
10887,515297
10889,514758
10892,515352
10894,515487
10896,516216
10899,515694
10901,516306
10903,516294
10905,517132
10908,516542
10910,517319
10912,517177
10915,517405
10917,517566
10919,518284
10923,518227
10925,518454
10927,519200
10930,518747
10932,519423
10934,519704
10937,520419
10939,519983
10941,520759
10944,520837
10946,521541
10948,521094
10951,521851
10953,521730
10955,522586
10958,522008
10960,522757
10962,522582
10966,522669
10968,522692
10970,523350
10973,523055
10975,523053
10977,523577
10980,522899
10982,523081
10984,523102
10987,523539
10989,522801
10991,523226
10993,522829
10996,523246
10998,522402
11000,522895
11003,522430
11005,522598
11008,521827
11011,522209
11013,521798
11015,521749
11018,521144
11020,521561
11022,521076
11025,521074
11027,521210
11029,520460
11032,520454
11034,520560
11036,520616
11039,519881
11041,520306
11043,520116
11046,520086
11048,519387
11051,519864
11054,519495
11056,519680
11058,519086
11061,519710
11063,519303
11065,519724
11068,519052
11070,519701
11072,519379
11075,519787
11077,519605
11079,519178
11081,519614
11084,520119
11086,519869
11088,519580
11091,520264
11094,520585
11096,520288
11099,520032
11101,520805
11103,520602
11106,520888
11108,520752
11110,521523
11113,521364
11115,522138
11117,521723
11120,522428
11122,522256
11124,523046
11127,522617
11129,522450
11131,523196
11134,524062
11137,523562
11139,523458
11142,524308
11144,525156
11146,524588
11149,524511
11151,525456
11153,525347
11156,525662
11158,525646
11160,526592
11163,526477
11165,527425
11167,526901
11169,527765
11172,527637
11174,528579
11176,528040
11180,528016
11182,528859
11184,529807
11187,529205
11189,529163
11191,530046
11194,530848
11196,530269
11198,530252
11201,531159
11203,530955
11205,531296
11208,531200
11210,532072
11212,531952
11215,532891
11217,532233
11219,533003
11223,532844
11225,533786
11227,533102
11230,533027
11232,533657
11234,534543
11237,533899
11239,533743
11241,534558
11244,535309
11246,534555
11248,534462
11250,535269
11253,535017
11255,535145
11257,534995
11260,535768
11262,535516
11265,536328
11268,535555
11270,536193
11272,535901
11275,536737
11277,535956
11279,535843
11282,536261
11284,537102
11286,536332
11289,536329
11291,536822
11293,537468
11296,536691
11298,536775
11300,537074
11303,536942
11305,537069
11308,537254
11311,537454
11313,537408
11315,538335
11318,537582
11320,537933
11322,537958
11325,538909
11327,538139
11329,538403
11332,538548
11334,539544
11336,538838
11338,539179
11341,539217
11343,540302
11345,539639
11348,539995
11351,539944
11353,540030
11356,540428
11358,540907
11360,540686
11363,540825
11365,541824
11367,541157
11370,541268
11372,541412
11374,542387
11377,541559
11379,541941
11381,541405
11384,542099
11386,541107
11388,541172
11392,540279
11394,540285
11396,538801
11399,538527
11401,537157
11403,536378
11406,536340
11408,533905
11410,532175
11413,531158
11415,530962
11417,529051
11420,526695
11422,525706
11424,525582
11426,523780
11429,523244
11431,520832
11433,520930
11437,519264
11439,519009
11441,517619
11444,517267
11446,515802
11448,515683
11451,514455
11453,514053
11455,514424
11458,513178
11460,512149
11462,511830
11465,512325
11467,511153
11469,510348
11472,510214
11474,510823
11476,509782
11480,510115
11482,509222
11484,509971
11487,509033
11489,509380
11491,508748
11494,509673
11496,508854
11498,509398
11501,508771
11503,509023
11505,509900
11508,509760
11510,509220
11512,509531
11514,510438
11517,509764
11520,510019
11522,510358
11525,511371
11527,510784
11529,511440
11532,511509
11534,512404
11536,511881
11539,512676
11541,512291
11543,513689
11546,513207
11548,513983
11550,513601
11553,514240
11555,514950
11557,515326
11560,514899
11563,515604
11565,516248
11568,515869
11570,516258
11572,517038
11575,517573
11577,517177
11579,517978
11582,518367
11584,518754
11586,518442
11589,519343
11591,518962
11593,520056
11596,519799
11598,520621
11600,520300
11602,521125
11606,521450
11608,522126
11610,521741
11613,522685
11615,522904
11617,522684
11620,523247
11622,524223
11624,524347
11627,524138
11629,525052
11631,525574
11634,525555
11636,525420
11638,526204
11641,525783
11643,526603
11645,526359
11649,527135
11651,526536
11653,527476
11656,527170
11658,527493
11660,526881
11663,527702
11665,527267
11667,526813
11670,526703
11672,527428
11674,526956
11677,526468
11679,526956
11681,526880
11684,526322
11686,525783
11688,526227
11691,525432
11694,526190
11696,524994
11698,525426
11701,524667
11703,525304
11705,524747
11708,524678
11710,523849
11712,524546
11715,523963
11717,523412
11719,523123
11722,523824
11724,523251
11726,522792
11729,523261
11731,523283
11734,522785
11737,522318
11739,522898
11741,522175
11744,522977
11746,522135
11748,522689
11751,522012
11753,522848
11755,522441
11758,522729
11760,522147
11762,523027
11765,522680
11767,522392
11769,522413
11772,523359
11774,523035
11777,522767
11779,523497
11782,523918
11784,523637
11786,523498
11789,524015
11791,523576
11793,524642
11796,524338
11798,524878
11800,524400
11803,525504
11805,525238
11807,525729
11810,525388
11812,526470
11814,526244
11817,526385
11820,526409
11822,527585
11825,527404
11827,527577
11829,527783
11832,528763
11834,528484
11836,528810
11839,528922
11841,528806
11843,529945
11846,530095
11848,530173
11850,529957
11853,531165
11855,530971
11857,531299
11859,531253
11863,532424
11865,532255
11867,532551
11870,532411
11872,533597
11874,533400
11877,533860
11879,533694
11881,534843
11884,534574
11886,535014
11888,534735
11891,534717
11893,535927
11895,536135
11898,535819
11900,535726
11902,536968
11906,536702
11908,536826
11910,536792
11913,538003
11915,537771
11917,538208
11920,537771
11922,538973
11924,538673
11927,539179
11929,538680
11931,539764
11934,539469
11936,539955
11938,539409
11941,539364
11943,540559
11945,540715
11948,540171
11951,540124
11953,541242
11955,540909
11958,540818
11960,540686
11962,541882
11965,541496
11967,541986
11969,541229
11972,542407
11982,542841
11983,542841
11985,542454
11987,542896
11988,542343
11991,542210
11993,543308
11995,542964
11997,543459
11999,542836
12001,542731
12003,543817
12005,543443
12007,543930
12009,543325
12011,543227
12013,544371
12015,544040
12017,544494
12019,543842
12022,544954
12024,544617
12026,545143
12029,544500
12032,544536
12034,545348
12036,545827
12039,545308
12041,545322
12043,546356
12046,546595
12048,546036
12050,546114
12053,547016
12055,546722
12057,546592
12060,546646
12062,547309
12064,546972
12067,547292
12069,546361
12071,546660
12075,545977
12077,546034
12079,544700
12082,544232
12084,542850
12086,542409
12089,540655
12091,539800
12093,538950
12096,536685
12098,534598
12100,533584
12103,532392
12105,530965
12107,528197
12110,527306
12112,526256
12114,525040
12118,524448
12120,522086
12122,521188
12124,520129
12127,519828
12129,518352
12131,517976
12134,516551
12136,516336
12138,515002
12141,514883
12143,514259
12145,513615
12148,512530
12150,512528
12152,511996
12155,511554
12157,510681
12160,510838
12163,510388
12165,510098
12167,510348
12170,509776
12172,509252
12174,509175
12177,509578
12179,508794
12181,509243
12184,508855
12186,509311
12188,508696
12191,509182
12193,508966
12195,509506
12198,508971
12200,509505
12203,509355
12206,509440
12208,509539
12210,510239
12212,510085
12215,510269
12217,510943
12219,510416
12222,511016
12224,511237
12226,511934
12229,511462
12231,512171
12233,512366
12236,513043
12238,512630
12240,513379
12243,513241
12246,514189
12248,513739
12251,514435
12253,514354
12255,514579
12258,514738
12260,515552
12262,515400
12265,515608
12267,516277
12269,515768
12272,516372
12274,516558
12276,517264
12279,516686
12281,517467
12283,517617
12286,518226
12289,517745
12291,518495
12294,518414
12296,519324
12298,518830
12300,519625
12303,519536
12305,519924
12307,519999
12310,520840
12312,520768
12314,521230
12317,521606
12319,521233
12321,521967
12324,522522
12326,522721
12328,522434
12332,523217
12334,523626
12336,523765
12339,523407
12341,524134
12343,523999
12346,524441
12348,524055
12350,524799
12353,524528
12355,525020
12357,524417
12360,525085
12362,524811
12364,525333
12367,524908
12369,524480
12371,524736
12375,525238
12377,524712
12379,524259
12382,524845
12384,524929
12386,524315
12388,523876
12391,524440
12393,524061
12395,523844
12398,523372
12400,523970
12402,523554
12405,524070
12407,522891
12409,523443
12412,523097
12414,523640
12417,522874
12420,522474
12422,522693
12424,523262
12427,522482
12429,522148
12431,522806
12434,523051
12436,522286
12438,522041
12441,522713
12443,522371
12445,522295
12448,522151
12450,522850
12452,522596
12455,523376
12457,522398
12460,523205
12463,522965
12465,523752
12467,523044
12469,522875
12472,523434
12474,524308
12476,523641
12479,523520
12481,524320
12483,525058
12486,524427
12488,524336
12490,525159
12493,525000
12495,525295
12497,525198
12500,526028
12503,525992
12505,526876
12508,526260
12510,527158
12512,526992
12515,528001
12517,527357
12519,527328
12522,528128
12524,529128
12526,528504
12529,528478
12531,529370
12533,530262
12536,529678
12538,529770
12540,530583
12544,530498
12546,530965
12548,531011
12551,531858
12553,531767
12555,532797
12557,532219
12560,533083
12562,533030
12564,534012
12567,533489
12569,533615
12571,534169
12574,535248
12576,534620
12578,534922
12581,535297
12583,536387
12585,535729
12589,536037
12591,536356
12593,536433
12596,536858
12598,537166
12600,537367
12603,537509
12605,538555
12607,537866
12610,538403
12612,538458
12614,539485
12617,538902
12619,539278
12621,539435
12624,540464
12626,539775
12628,540247
12632,540175
12634,541386
12636,540719
12639,541193
12641,541006
12643,541196
12645,541565
12648,542014
12650,541714
12652,541862
12655,542897
12657,542185
12659,542327
12662,542507
12664,543506
12666,542849
12669,543377
12672,543089
12674,544163
12677,543436
12679,543982
12681,543470
12684,544798
12686,544040
12688,544597
12691,544145
12693,544316
12695,544623
12698,545223
12700,544709
12702,544878
12705,545958
12707,545242
12709,545313
12712,545611
12715,546618
12717,545959
12720,546641
12722,546326
12724,547391
12727,546685
12729,547349
12731,546861
12734,548220
12736,547564
12738,548239
12740,547696
12743,548005
12745,548428
12747,549068
12750,548547
12752,548840
12754,549867
12758,549185
12760,549199
12762,549470
12765,550397
12767,549584
12769,550064
12772,549348
12774,550022
12776,548942
12779,549057
12781,547931
12783,547766
12786,546155
12788,545802
12790,544189
12793,543304
12795,543049
12797,540222
12801,538149
12803,536951
12805,536333
12808,534139
12810,531282
12812,530176
12815,529655
12817,527596
12819,527004
12821,524518
12824,524071
12826,522341
12828,522031
12831,520442
12833,519771
12835,518370
12838,518213
12840,516953
12843,516776
12846,516561
12848,515442
12850,514353
12853,514402
12855,514243
12857,513186
12860,512462
12862,512755
12864,512542
12867,511749
12869,512120
12871,511701
12874,511528
12876,510887
12878,511325
12881,510638
12883,511094
12886,510540
12889,511115
12891,510493
12893,511189
12896,511076
12898,511361
12900,510777
12903,511593
12905,511509
12907,511199
12909,511458
12912,512304
12914,512269
12916,512026
12919,512809
12921,513364
12923,513249
12926,513039
12929,513866
12931,513452
12934,514414
12936,514222
12938,515175
12941,514754
12943,515795
12945,515660
12948,516400
12950,516022
12952,517096
12955,516942
12957,516833
12959,517220
12962,518335
12964,518192
12966,518010
12969,518899
12972,519533
12974,519351
12977,519185
12979,520033
12981,519629
12984,520455
12986,520313
12988,521158
12991,520745
12993,521798
12995,521571
12997,522375
13000,521980
13002,523094
13004,522873
13007,522734
13009,523241
13011,524373
13015,524190
13017,524108
13019,524974
13022,525761
13024,525613
13026,525485
13029,526353
13031,525944
13033,526807
13036,526725
13038,527532
13040,527038
13043,528106
13045,527834
13047,528355
13050,527825
13052,528772
13054,528354
13058,528145
13060,528155
13062,529025
13065,528540
13067,528307
13069,528755
13072,528966
13074,528395
13076,528139
13078,528326
13081,527592
13083,528501
13085,527676
13088,527721
13090,527075
13092,527885
13095,527279
13097,527055
13100,526418
13103,527239
13105,526619
13107,526452
13110,525679
13112,526459
13114,525839
13117,525754
13119,525494
13121,525794
13124,525284
13126,525277
13128,524920
13131,524506
13133,525360
13135,524965
13138,524601
13140,524161
13143,525161
13146,524706
13148,524451
13150,524130
13153,525153
13155,524767
13157,525056
13160,524352
13162,525396
13164,525054
13166,525417
13169,524973
13171,525925
13173,525622
13176,526059
13178,525613
13180,525470
13184,526566
13186,526713
13188,526297
13191,526218
13193,527428
13195,527111
13198,527244
13200,527207
13202,528375
13205,528142
13207,528684
13209,528133
13212,529405
13214,529237
13216,529782
13219,529354
13221,530589
13223,530427
13227,531024
13229,530544
13231,530576
13234,531828
13236,532261
13238,531808
13241,531851
13243,533132
13245,532935
13248,533090
13250,533177
13252,534448
13254,534309
13257,534936
13259,534485
13261,535759
13264,535570
13266,536209
13268,535740
13272,537006
13274,536874
13276,537462
13279,536998
13281,537063
13283,538287
13286,538741
13288,538248
13290,538322
13293,539563
13295,539355
13297,539472
13300,539522
13302,540739
13304,540476
13307,541048
13309,540653
13312,541754
13315,541481
13317,542123
13319,541584
13322,542717
13324,542466
13326,543041
13329,542378
13331,542551
13333,543472
13336,543805
13338,543267
13340,543491
13342,544273
13345,543997
13347,543957
13349,544196
13352,544816
13355,544648
13357,545199
13360,544814
13362,545292
13364,545164
13367,545671
13369,545116
13371,545352
13374,545636
13376,546227
13378,545634
13381,545952
13383,546227
13385,546796
13388,546219
13390,546576
13392,546778
13395,546721
13398,546778
13400,547243
13403,547371
13405,547390
13407,548043
13410,547989
13412,548025
13414,548127
13417,548813
13419,548280
13421,548863
13424,548912
13426,549646
13428,549106
13430,549671
13433,549661
13435,550424
13437,549799
13441,550428
13443,550358
13445,550399
13448,550319
13450,550812
13452,550504
13455,550351
13457,550816
13459,550096
13462,549477
13464,548998
13466,548995
13469,547621
13471,547395
13473,545309
13476,544809
13478,542958
13480,542307
13484,540715
13486,538579
13488,536522
13491,535741
13493,534052
13495,532710
13498,530075
13500,529406
13502,527933
13505,526915
13507,526381
13509,524362
13512,523219
13514,522445
13516,522181
13518,520781
13521,520670
13523,519144
13526,519110
13529,517895
13531,517972
13533,517109
13536,516908
13538,515753
13540,515947
13543,515317
13545,515101
13547,514397
13550,514686
13552,514230
13554,514093
13557,514437
13559,514046
13561,513609
13564,513639
13566,514051
13569,513345
13572,513857
13574,513715
13576,514167
13579,513577
13581,514147
13583,513893
13586,514583
13588,514069
13590,514749
13593,514612
13595,515034
13597,514938
13600,515679
13602,515570
13604,516097
13606,516365
13609,516789
13612,516746
13614,517346
13617,517490
13619,517267
13621,518130
13624,518748
13626,518807
13628,518609
13631,519488
13633,519441
13635,520188
13638,520062
13640,520924
13642,520898
13645,521679
13647,521477
13649,522398
13652,522340
13655,523155
13657,522977
13660,522830
13662,523748
13664,524664
13667,524406
13669,524308
13671,525234
13674,526215
13676,525922
13678,525907
13681,526916
13683,526897
13685,527499
13687,527494
13690,528502
13692,528510
13694,529521
13698,529211
13700,530180
13702,530135
13705,531147
13707,530736
13709,530712
13712,531610
13714,532497
13716,531978
13719,531952
13721,532796
13723,533613
13726,532989
13728,532851
13730,533683
13733,533447
13735,533514
13737,533309
13741,534002
13743,533709
13745,534386
13748,533260
13750,533891
13752,533459
13755,534136
13757,533210
13759,532806
13762,532867
13764,533506
13766,532568
13769,532116
13771,532665
13773,532767
13775,531744
13778,531300
13780,531813
13783,531275
13786,530868
13788,530387
13790,530888
13793,530409
13795,530973
13797,529605
13800,530125
13802,529647
13804,530291
13807,529368
13809,528925
13811,529074
13814,529782
13816,528913
13818,528630
13821,529217
13824,529562
13826,528757
13829,528565
13831,529115
13833,528833
13836,528891
13838,528833
13840,529335
13843,529145
13845,529941
13847,529256
13850,529715
13852,529572
13854,530518
13857,529850
13859,530017
13861,530325
13863,531238
13867,530619
13869,530849
13871,531067
13874,532096
13876,531523
13878,531875
13881,531993
13883,532105
13885,532559
13888,532986
13890,533073
13892,533261
13895,534329
13897,534237
13899,534239
13902,534469
13904,535535
13906,535015
13910,535567
13912,535732
13914,536843
13917,536278
13919,536894
13921,536752
13924,538169
13926,537646
13928,538229
13931,538009
13933,538382
13935,538943
13938,539614
13940,539385
13942,539700
13945,540862
13947,540323
13949,540666
13952,541034
13955,542199
13957,541619
13959,542320
13962,542378
13964,543461
13966,542908
13969,543580
13971,543188
13973,544698
13976,544090
13978,544780
13980,544424
13983,544714
13985,545251
13987,545935
13990,545500
13992,545819
13995,546921
13998,546269
14000,546507
14002,546839
14005,547969
14007,547390
14009,548042
14012,547826
14014,548931
14016,548262
14019,548918
14021,548407
14023,549800
14026,549122
14028,549744
14030,549258
14033,549522
14035,549904
14038,550553
14040,550049
14043,550316
14045,551351
14047,550649
14050,550760
14052,551089
14054,552062
14057,551410
14059,552027
14061,551781
14064,552757
14066,552091
14068,552723
14071,552182
14073,553497
14075,552849
14078,553429
14081,552869
14083,553248
14086,553505
14088,554116
14090,553600
14093,554000
14095,554855
14097,554228
14100,554380
14102,554881
14104,555633
14107,554995
14109,555755
14111,555808
14114,556445
14116,555875
14118,556539
14121,555991
14124,557024
14126,556483
14128,557137
14131,556517
14133,557107
14135,556550
14138,556925
14140,555994
14142,556225
14145,555890
14147,554791
14149,553307
14152,553055
14154,552092
14156,550488
14159,549949
14161,547347
14163,545823
14167,543864
14169,542984
14171,540730
14174,538199
14176,536303
14178,535445
14181,533370
14183,532815
14185,529799
14188,529338
14190,527687
14192,527491
14195,526247
14197,525072
14199,523530
14202,523596
14204,522627
14206,521709
14210,521762
14212,520911
14214,520090
14216,519291
14219,519498
14221,518489
14223,518285
14226,517599
14228,517968
14230,517081
14233,517727
14235,517137
14237,517088
14240,516323
14242,517059
14244,516586
14247,516155
14249,516082
14252,516852
14255,516441
14257,516138
14259,516737
14262,517121
14264,516759
14266,516516
14269,517223
14271,516689
14273,517358
14276,517122
14278,517919
14280,517465
14283,518433
14285,518219
14287,518927
14290,518509
14292,519570
14295,519397
14297,519250
14300,519656
14302,520820
14304,520626
14307,520545
14309,521393
14311,522121
14314,521931
14316,521863
14318,522703
14321,522336
14323,523356
14325,523295
14328,524116
14330,523735
14332,524880
14336,524649
14338,525450
14340,525041
14343,526242
14345,525991
14347,526114
14350,526495
14352,527657
14354,527428
14357,527577
14359,528182
14361,529064
14364,528883
14366,529121
14368,529541
14371,529351
14373,530432
14375,530751
14379,531057
14381,530918
14383,532138
14385,531958
14388,532540
14390,532335
14392,533603
14395,533433
14397,533777
14399,533685
14402,534894
14404,534666
14406,534930
14409,534911
14411,535862
14413,535520
14416,535800
14418,535569
14420,535350
14424,536077
14426,536334
14428,535902
14431,535596
14433,536651
14435,536137
14438,535791
14440,535436
14442,536364
14445,535822
14447,535874
14449,534864
14452,535686
14454,535125
14456,535333
14459,534542
14461,534911
14464,534334
14467,534470
14469,533652
14471,533275
14473,534114
14476,533660
14478,532800
14480,532441
14483,533353
14485,532753
14487,532153
14490,531840
14492,532752
14494,532203
14497,532503
14499,531417
14501,532368
14504,531870
14507,532225
14509,531510
14512,532259
14514,531814
14516,532228
14519,531562
14521,531378
14523,532416
14526,532480
14528,531846
14530,531682
14533,532779
14535,532464
14537,532403
14540,532272
14542,533444
14544,533089
14547,533674
14550,533011
14552,534148
14555,533913
14557,534492
14559,533967
14561,535143
14564,534830
14566,535449
14568,534939
14571,534943
14573,536163
14575,536521
14578,536054
14580,536140
14582,537332
14585,537062
14587,537239
14589,537320
14593,538512
14595,538315
14597,538947
14600,538667
14602,539672
14604,539548
14607,540229
14609,539744
14611,540933
14614,540836
14616,541544
14618,541036
14621,541374
14623,542220
14625,542843
14628,542349
14630,542727
14632,543419
14636,543366
14638,543651
14640,544107
14643,544639
14645,544687
14647,545415
14649,545347
14652,545810
14654,545866
14656,546638
14659,546158
14661,547043
14663,547086
14666,547845
14668,547330
14670,547860
14673,548135
14675,548972
14678,548408
14681,548962
14683,549148
14685,549207
14688,549382
14690,550034
14692,550116
14695,550271
14697,550929
14699,550965
14702,550987
14704,551097
14706,551799
14709,551174
14711,551790
14713,551857
14716,552584
14718,551962
14721,552591
14724,552461
14726,553222
14728,552662
14731,553273
14733,553145
14735,553230
14737,553308
14740,553972
14742,553795
14744,553877
14747,554588
14749,554593
14751,554499
14754,554554
14756,555240
14758,554685
14761,555363
14764,555313
14766,555970
14769,555386
14771,556047
14773,555847
14776,556664
14778,556081
14780,556835
14783,556661
14785,556810
14787,556889
14790,557616
14792,557478
14794,557596
14797,558360
14799,558419
14801,558315
14804,558430
14807,559156
14809,558552
14812,559211
14814,559165
14816,559784
14819,559109
14821,559678
14823,559296
14825,559641
14828,558677
14830,558948
14832,558189
14835,557785
14837,556178
14839,555917
14842,554653
14844,553683
14846,552964
14850,550254
14852,548495
14854,547143
14857,545974
14859,543750
14861,542683
14864,539564
14866,538287
14868,536226
14871,535579
14873,533902
14875,531951
14878,530302
14880,529964
14882,528687
14885,528183
14887,526067
14889,525999
14893,525033
14895,524812
14897,524183
14900,523282
14902,522524
14904,522584
14906,521973
14909,521162
14911,521401
14913,521025
14916,520499
14918,519843
14920,520321
14923,519779
14925,519593
14927,519133
14930,519627
14932,519251
14935,519784
14938,518877
14940,519504
14942,519292
14945,519882
14947,519409
14949,519834
14952,519661
14954,520400
14956,519879
14959,519682
14961,520502
14963,521193
14966,520676
14968,520617
14970,521481
14973,521333
14976,521757
14978,521703
14981,522612
14983,522506
14985,523457
14988,522945
14990,523961
14992,523897
14994,524845
14997,524355
14999,525389
15001,525333
15004,526366
15006,525874
15008,525851
15011,526842
15013,527860
15015,527372
15019,527401
15021,528383
15023,528396
15026,528910
15028,528892
15030,529917
15033,529894
15035,530967
15037,530558
15040,531501
15042,531514
15044,532577
15047,532165
15049,532148
15051,533207
15054,534263
15056,533807
15058,533875
15062,534946
15064,536038
15066,535605
15069,535691
15071,536656
15073,536688
15076,537287
15078,537323
15080,538253
15082,538159
15085,539165
15087,538629
15089,539496
15092,539309
15094,540280
15096,539596
15099,539545
15101,540063
15104,540917
15107,540148
15109,540041
15111,540547
15114,541065
15116,540200
15118,540119
15121,540388
15123,540070
15125,539787
15128,539561
15130,539654
15132,539254
15135,539880
15137,538732
15139,538633
15142,538199
15144,538752
15147,537677
15150,537578
15152,536964
15154,537572
15157,536509
15159,536393
15161,536072
15164,536381
15166,535331
15168,535259
15170,534898
15173,534642
15175,534325
15177,534398
15180,533995
15182,533804
15184,534575
15187,533810
15190,533368
15192,533295
15195,534096
15197,533264
15199,533539
15202,533147
15204,534014
15206,533230
15209,533596
15211,533127
15213,534151
15216,533413
15218,533922
15220,533428
15223,533615
15225,533942
15227,534433
15230,533949
15233,534224
15235,535223
15238,535178
15240,534752
15242,535009
15245,536035
15247,535461
15249,536043
15252,535907
15254,536995
15256,536384
15258,537064
15261,536615
15263,538072
15265,537540
15268,538236
15270,537789
15272,538138
15276,538691
15278,539383
15280,538997
15283,539380
15285,540480
15287,540636
15290,540249
15292,540591
15294,541690
15297,541222
15299,541944
15301,541941
15304,543076
15306,542540
15308,543257
15311,542829
15313,544359
15315,543821
15319,544528
15321,544129
15323,544436
15326,545053
15328,545724
15330,545287
15333,545665
15335,546819
15337,546246
15340,546448
15342,546880
15344,547918
15346,547354
15349,548085
15351,547966
15353,549022
15356,548424
15358,549098
15361,548630
15364,549956
15366,549327
15368,550068
15371,549526
15373,550088
15375,550294
15378,550972
15380,550443
15382,550960
15385,551567
15387,551070
15389,551170
15392,551734
15394,552288
15396,551744
15399,552436
15401,552555
15404,552908
15407,552433
15409,553173
15411,552615
15414,553544
15416,553134
15418,553806
15421,553264
15423,554064
15425,553889
15428,554558
15430,554037
15432,554842
15434,554976
15437,554533
15439,554783
15441,555665
15444,555681
15447,555391
15449,556127
15452,556498
15454,556425
15456,556102
15459,556862
15461,556310
15463,557033
15466,556599
15468,557281
15470,556552
15473,557265
15475,556260
15477,556574
15480,555583
15482,555976
15484,555006
15488,554019
15490,552366
15492,552235
15495,550825
15497,549351
15499,548768
15502,546318
15504,544475
15506,542711
15509,541950
15511,539785
15513,537533
15515,535845
15518,535269
15520,533436
15522,533130
15525,530315
15527,530088
15529,528506
15533,528557
15535,527317
15537,526269
15540,525014
15542,525326
15544,524383
15547,523550
15549,523722
15551,523139
15554,522284
15556,521657
15558,521933
15561,520991
15563,520919
15565,520399
15568,520794
15570,520009
15572,520650
15576,519675
15578,520214
15580,519467
15583,520278
15585,519846
15587,519492
15590,519503
15592,520410
15594,520028
15597,519760
15599,520457
15601,520857
15603,520530
15606,520416
15608,521124
15610,520599
15613,521387
15616,521353
15618,522016
15621,521566
15623,522698
15625,522512
15628,523168
15630,522814
15632,524012
15635,523806
15637,523969
15639,524177
15642,525400
15644,525212
15646,525504
15649,525894
15651,526891
15653,526742
15656,527112
15659,527442
15661,527273
15664,528369
15666,528790
15668,528997
15671,528910
15673,530211
15675,530067
15678,530664
15680,530632
15682,531946
15685,531855
15687,532321
15689,532369
15691,533777
15694,533681
15696,534291
15698,534334
15702,535684
15704,535619
15706,536245
15709,536146
15711,536216
15713,537540
15716,538120
15718,537942
15720,537942
15723,539247
15725,539084
15727,539405
15730,539357
15732,540600
15734,540335
15737,540917
15739,540269
15741,541495
15745,541189
15747,541588
15749,541001
15752,541877
15754,541441
15756,541838
15759,541097
15761,540822
15763,541247
15766,541542
15768,540790
15770,540354
15773,541243
15775,540604
15777,539921
15780,539455
15782,540238
15784,539559
15787,539723
15790,538229
15792,539016
15794,538431
15797,538507
15799,537531
15801,537885
15804,537113
15806,537278
15808,536356
15811,535914
15813,536020
15815,536230
15818,535329
15820,534944
15822,535820
15825,535211
15827,534656
15830,534356
15833,535292
15835,534698
15837,535020
15840,534025
15842,534895
15844,534459
15847,534898
15849,534205
15851,535045
15854,534588
15856,535058
15858,534420
15861,534273
15863,535048
15865,535459
15867,534863
15870,534875
15873,535899
15875,535596
15878,535545
15880,535602
15882,536617
15885,536309
15887,536964
15889,536617
15892,537420
15894,537255
15896,537922
15899,537403
15901,538390
15903,538262
15906,538934
15908,538429
15910,538824
15913,539467
15916,540108
15918,539606
15921,540024
15923,540637
15925,540596
15928,540840
15930,541291
15932,541761
15935,541860
15937,542557
15939,542639
15942,543035
15944,543071
15946,543844
15949,543375
15951,544198
15953,544344
15955,545122
15959,544661
15961,545272
15963,545447
15966,546351
15968,545818
15970,546426
15973,546569
15975,546737
15977,546976
15980,547607
15982,547642
15984,547817
15987,548577
15989,548672
15991,548661
15994,548837
15996,549600
15998,549081
16002,549682
16004,549817
16006,550620
16009,550084
16011,550677
16013,550595
16016,551516
16018,550978
16020,551631
16023,551519
16025,551664
16027,551790
16030,552510
16032,552336
16034,552473
16037,553229
16039,553280
16041,553120
16044,553253
16047,553966
16049,553364
16051,553833
16054,554007
16056,554750
16058,554127
16061,554841
16063,554608
16065,555462
16068,554841
16070,555561
16072,555395
16075,555551
16077,555644
16079,556399
16082,556212
16084,556387
16087,557110
16090,557259
16092,557065
16094,557232
16097,557987
16099,557386
16101,557842
16104,558029
16106,558667
16108,557967
16111,558654
16113,558360
16115,558954
16118,558114
16120,558549
16122,558000
16124,557807
16128,556684
16130,556604
16132,555542
16135,554901
16137,554361
16139,552082
16142,550500
16144,549391
16146,548187
16149,546076
16151,543263
16153,541986
16156,540645
16158,538460
16160,537640
16163,535941
16165,533787
16167,532089
16171,531569
16173,530213
16175,529640
16178,527278
16180,527124
16182,526051
16185,525884
16187,525014
16189,524027
16192,523180
16194,523211
16196,522450
16199,521677
16201,521916
16203,521410
16206,520706
16208,520073
16210,520431
16212,519937
16216,519650
16218,519092
16220,519606
16223,519198
16225,519635
16227,518670
16230,519275
16232,518915
16234,519512
16237,518912
16239,519241
16241,519026
16244,519708
16246,519126
16248,518918
16251,519744
16253,520310
16256,519789
16259,519616
16261,520429
16263,520300
16266,520619
16268,520546
16270,521389
16273,521286
16275,522270
16277,521641
16280,522544
16282,522445
16284,523445
16287,522900
16289,523748
16291,523690
16294,524683
16296,524164
16299,524136
16301,525047
16304,525996
16306,525530
16308,525462
16311,526387
16313,526313
16315,526806
16318,526835
16320,527732
16322,527703
16325,528688
16327,528196
16329,529064
16332,529063
16334,530042
16336,529572
16339,530491
16342,530434
16344,531493
16347,530997
16349,531037
16351,532001
16354,533029
16356,532533
16358,532601
16361,533550
16363,533536
16365,534087
16368,534071
16370,534994
16372,534882
16375,535895
16377,535438
16379,536186
16382,536030
16385,537001
16387,536360
16389,536977
16392,536852
16394,537751
16396,537081
16399,537086
16401,537435
16403,537997
16406,537289
16408,537254
16410,537414
16413,537141
16415,537013
16417,536961
16420,536916
16422,536639
16424,537307
16428,536280
16430,536124
16432,535832
16435,536464
16437,535442
16439,535119
16442,534785
16444,535479
16446,534469
16449,534458
16451,534076
16453,534446
16456,533494
16458,533549
16460,533102
16463,532916
16465,532658
16467,532867
16471,532357
16473,532209
16475,532947
16477,532352
16480,531881
16482,531851
16484,532635
16487,531829
16489,532153
16491,531691
16494,532623
16496,531809
16498,532254
16501,531740
16503,532760
16505,532038
16508,532534
16510,532017
16513,532143
16516,532484
16518,532974
16520,532535
16523,532680
16525,533671
16527,533604
16530,533125
16532,533352
16534,534385
16537,533828
16539,534421
16541,534316
16544,535302
16546,534712
16548,535356
16551,534845
16553,536270
16556,535670
16559,536349
16561,535916
16563,536237
16565,536720
16568,537389
16570,536924
16572,537248
16575,538415
16577,538537
16579,538052
16582,538394
16584,539575
16586,538991
16589,539724
16591,539582
16593,540698
16596,540155
16599,540824
16601,540389
16604,541861
16606,541273
16608,542014
16611,541537
16613,541919
16615,542428
16618,543158
16620,542634
16622,543015
16625,544109
16627,544223
16629,543690
16632,544111
16634,545112
16636,544518
16640,545236
16642,545136
16644,546011
16647,545461
16649,546129
16651,545583
16653,546900
16656,546360
16658,547089
16660,546578
16663,547113
16665,547251
16667,547888
16670,547377
16672,547996
16674,548479
16677,548683
16679,548170
16681,548803
16685,549163
16687,548740
16689,549409
16692,549517
16694,549815
16696,549449
16699,550129
16701,549571
16703,550457
16706,550102
16708,550828
16710,550270
16713,551002
16715,550830
16717,551583
16720,551056
16722,551852
16724,551956
16728,551623
16730,551854
16740,552734
16741,552734
16743,553623
16745,553495
16747,553248
16749,554020
16751,553503
16753,554411
16754,554193
16756,553886
16758,554590
16760,553996
16762,554754
16764,554326
16766,553858
16769,554294
16771,553356
16773,553844
16775,553023
16777,552142
16780,550751
16782,550702
16784,549398
16787,547975
16789,547523
16791,545212
16794,543494
16796,541753
16798,541008
16801,538989
16803,536779
16805,535165
16808,534583
16811,532778
16813,532486
16816,529638
16818,529325
16820,527818
16822,527863
16825,526606
16827,525549
16829,524252
16832,524515
16834,523537
16836,522702
16839,522821
16841,522250
16843,521430
16846,520733
16848,521028
16850,520061
16854,519972
16856,519426
16858,519831
16861,518952
16863,519698
16865,518632
16868,519156
16870,518427
16872,519166
16875,518685
16877,518385
16879,518243
16882,519150
16884,518744
16886,518515
16889,519156
16891,519529
16893,519189
16897,519109
16899,519681
16901,519135
16904,519871
16906,519931
16908,520445
16910,520011
16913,521071
16915,520946
16917,521333
16920,521010
16922,522107
16924,521915
16927,522143
16929,522184
16931,523364
16934,523107
16936,523447
16939,523689
16942,524622
16944,524387
16946,524753
16949,524876
16951,524685
16953,525727
16956,526086
16958,526176
16960,525999
16963,527234
16965,527531
16967,527500
16970,527346
16972,528590
16974,528415
16977,528977
16979,528753
16982,530023
16985,529878
16987,530453
16989,530245
16992,531491
16994,531381
16996,532021
16998,531735
17001,531764
17003,532875
17005,533546
17008,533213
17010,533259
17012,534479
17015,534373
17017,534552
17019,534476
17022,535736
17025,535534
17027,536041
17030,535519
17032,536660
17034,536344
17037,536806
17039,536278
17041,537220
17044,536803
17046,537225
17048,536547
17051,536263
17053,536828
17055,537089
17058,536310
17060,536033
17062,536907
17065,536293
17068,535654
17070,535299
17073,536094
17075,535430
17077,535647
17080,534344
17082,535087
17084,534420
17086,534637
17089,533735
17091,534019
17093,533375
17096,533613
17098,532675
17100,532260
17103,532358
17105,532582
17107,531729
17111,531367
17113,532186
17115,531582
17118,531066
17120,530713
17122,531552
17125,531060
17127,531357
17129,530367
17132,531312
17134,530815
17136,531212
17139,530499
17141,531280
17143,530843
17146,531238
17148,530576
17150,530513
17154,531046
17156,531568
17158,530876
17161,530937
17163,531754
17165,531479
17168,531387
17170,531540
17172,532234
17174,532099
17177,532682
17179,532272
17181,532939
17184,532803
17186,533454
17188,532891
17191,533734
17193,533663
17196,534332
17199,533768
17201,534147
17203,534612
17206,535305
17208,534769
17210,535228
17213,535551
17215,535589
17217,535843
17220,536293
17222,536649
17224,536725
17227,537462
17229,537455
17231,537705
17234,537764
17236,538575
17239,538057
17242,538740
17244,538848
17246,539621
17249,539121
17251,539738
17253,539961
17256,540719
17258,540175
17260,540849
17262,540781
17265,540998
17267,541206
17269,541850
17272,541799
17274,541975
17276,542795
17280,542875
17282,542753
17284,542924
17287,543714
17289,543123
17291,543646
17294,543788
17296,544523
17298,543961
17301,544628
17303,544498
17305,545335
17308,544766
17310,545458
17312,545252
17315,545420
17317,545583
17319,546204
17323,546027
17325,546176
17327,546935
17330,547013
17332,546826
17334,546924
17337,547675
17339,547089
17341,547558
17343,547676
17346,548472
17348,547814
17350,548468
17353,548349
17355,549229
17357,548692
17360,549374
17362,549196
17364,549324
17368,549478
17370,550187
17372,549971
17375,550099
17377,550825
17379,550838
17382,550589
17384,550642
17386,551232
17389,550499
17391,550574
17393,550536
17396,550887
17398,549883
17400,549992
17403,549194
17405,548494
17408,547071
17411,546744
17413,545465
17415,544635
17418,542064
17420,541377
17422,539820
17425,538810
17427,537746
17429,535254
17431,533670
17434,532902
17436,531887
17438,530273
17441,528642
17443,528078
17445,527243
17448,525846
17451,525722
17453,524717
17456,523756
17458,522692
17460,522809
17463,522039
17465,522049
17467,520504
17470,520805
17472,520143
17474,520317
17477,519760
17479,519389
17481,518900
17484,519248
17486,518700
17488,518120
17491,518179
17494,518684
17496,518148
17499,517668
17501,518245
17503,517908
17506,518045
17508,517708
17510,518364
17513,518114
17515,518830
17517,518107
17519,518822
17522,518614
17524,519443
17526,518911
17529,519519
17531,519487
17533,520221
17537,519769
17539,519659
17541,520414
17544,521327
17546,520835
17548,520759
17551,521605
17553,521524
17555,522048
17558,521977
17560,522847
17562,522762
17565,523694
17567,523241
17569,524195
17572,524079
17574,525050
17576,524598
17580,525486
17582,525373
17584,526368
17587,525907
17589,525862
17591,526788
17594,527729
17596,527270
17598,527300
17601,528248
17603,528165
17605,528772
17607,528742
17610,529707
17612,529707
17614,530791
17617,530331
17619,531307
17622,531258
17625,532373
17627,531915
17629,532867
17632,532807
17634,533851
17636,533411
17639,533413
17641,534268
17643,535146
17646,534561
17648,534485
17650,535314
17653,535097
17655,535378
17657,535332
17660,535961
17662,535707
17665,536500
17668,535652
17670,536113
17672,535808
17675,536540
17677,535750
17679,535786
17682,535469
17684,536113
17686,535265
17689,535109
17691,535156
17693,535381
17695,534448
17698,534303
17700,534180
17702,533808
17705,533464
17708,533376
17710,533108
17713,532739
17715,533386
17717,532386
17720,532021
17722,531765
17724,532390
17727,531468
17729,531020
17731,530810
17734,531528
17736,530682
17738,530742
17741,530342
17743,530925
17745,530099
17748,530288
17751,529864
17753,529831
17756,529825
17758,530065
17760,529579
17763,529672
17765,530497
17767,530094
17770,529629
17772,529729
17774,530596
17777,529885
17779,529906
17781,530004
17783,530981
17786,530304
17788,530826
17790,530338
17794,531502
17796,530909
17798,531445
17801,530968
17803,531111
17805,531560
17808,532112
17810,531634
17812,531953
17815,532958
17817,532992
17819,532532
17822,532776
17824,533866
17826,533261
17829,533478
17831,533699
17833,534851
17837,534238
17839,534949
17841,534458
17844,535900
17846,535312
17848,535984
17851,535583
17853,535906
17855,536402
17858,537045
17860,536596
17862,536931
17865,538004
17867,538070
17869,537606
17871,537936
17874,539000
17876,538475
17879,539153
17882,539004
17884,540073
17886,539551
17889,540234
17891,539662
17893,541060
17896,540471
17898,541112
17900,540617
17903,540957
17905,541448
17907,542032
17910,541556
17912,541906
17914,542901
17917,542924
17920,542390
17922,542879
17925,543737
17927,543162
17929,543796
17932,543753
17934,544494
17936,544038
17939,544665
17941,544131
17943,545264
17946,544822
17948,545450
17950,544911
17952,545501
17955,545566
17957,546294
17959,545737
17963,546432
17965,546792
17967,547093
17970,546589
17972,547258
17974,547557
17977,547215
17979,547971
17981,548181
17984,548400
17986,548006
17988,548769
17991,548194
17993,549091
17995,548784
17998,549438
18000,548854
18002,549617
18006,549181
18008,549748
18010,548983
18013,549612
18015,549199
18017,548823
18020,547692
18022,547881
18024,546933
18027,545881
18029,545633
18031,543826
18034,542319
18036,540828
18038,540128
18040,538277
18043,536100
18045,534538
18048,533840
18051,532002
18053,531641
18055,528742
18058,528332
18060,526697
18062,526554
18065,525313
18067,524038
18069,522647
18072,522760
18074,521761
18076,520855
18079,520921
18081,520125
18083,519229
18086,518531
18088,518748
18091,517662
18094,517422
18096,516850
18098,517155
18101,516228
18103,516832
18105,515734
18108,516151
18110,515326
18112,516028
18115,515541
18117,515603
18119,514922
18122,515753
18124,515292
18126,515012
18128,515615
18131,515894
18134,515515
18136,515298
18139,515966
18141,515406
18143,516011
18146,515881
18148,516573
18150,516053
18153,516988
18155,516700
18157,517400
18160,516909
18162,517947
18164,517712
18167,517656
18169,517941
18171,519032
18174,518777
18177,518861
18179,519411
18182,520175
18184,519956
18186,520082
18189,520550
18191,520194
18193,521091
18196,521300
18198,521682
18200,521380
18203,522443
18205,522529
18207,522781
18210,522499
18212,523642
18214,523448
18216,523761
18220,523687
18222,524840
18224,524682
18227,525095
18229,525145
18231,526122
18234,525982
18236,526434
18238,526409
18241,526251
18243,527357
18245,527838
18248,527781
18250,527615
18252,528771
18255,529196
18257,528976
18259,528872
18263,530065
18265,529853
18267,530406
18270,529949
18272,531095
18274,530771
18277,531233
18279,530817
18281,531747
18284,531369
18286,531799
18288,531272
18291,531017
18293,531560
18295,531932
18298,531220
18300,530926
18302,531843
18305,531609
18308,530812
18310,530486
18312,531320
18315,530751
18317,530975
18319,529722
18322,530542
18324,529946
18326,530177
18329,529290
18331,529715
18333,529118
18336,529384
18338,528471
18340,528068
18343,528311
18345,528658
18348,527712
18351,527346
18353,528155
18355,527888
18358,527094
18360,526736
18362,527637
18365,527159
18367,527479
18369,526396
18372,527319
18374,526834
18376,527235
18379,526527
18381,527274
18383,526800
18386,527307
18388,526583
18391,526408
18393,527011
18396,527536
18398,526852
18400,526727
18403,527697
18405,527959
18407,527307
18410,527236
18412,528280
18414,527924
18417,528589
18419,527866
18421,528892
18424,528586
18426,529177
18428,528563
18432,529659
18434,529336
18436,530067
18439,529428
18441,529594
18443,530260
18446,530964
18448,530364
18450,530599
18453,531331
18455,531175
18457,531330
18460,531607
18462,532247
18464,532179
18467,532918
18469,532688
18471,533245
18475,533178
18477,533924
18479,533370
18481,534234
18484,534234
18486,534995
18488,534356
18491,534842
18493,535184
18495,536049
18498,535446
18500,535894
18502,536206
18505,536226
18507,536429
18509,536942
18512,537081
18514,537156
18516,537888
18520,537861
18522,538023
18524,538040
18527,538787
18529,538231
18531,538791
18534,538919
18536,539666
18538,539031
18541,539656
18543,539721
18545,540456
18548,539868
18550,540434
18552,540350
18555,540479
18557,540621
18560,541227
18562,541092
18565,541161
18567,541973
18569,541953
18572,541779
18574,541899
18576,542686
18579,542001
18581,542454
18583,542584
18586,543353
18588,542706
18590,543346
18593,543340
18595,544042
18597,543449
18600,544086
18603,543901
18605,543999
18608,544150
18610,544799
18612,544655
18615,544795
18617,545575
18619,545671
18622,545412
18624,545580
18626,546367
18629,545716
18631,546140
18633,546292
18636,546994
18638,546304
18640,546860
18643,546608
18646,547169
18648,546279
18650,546660
18653,546029
18655,545740
18657,544643
18660,544573
18662,543589
18664,542814
18667,542483
18669,540277
18671,538856
18674,537725
18676,537056
18678,535033
18681,532738
18683,531698
18685,530989
18689,529120
18691,528550
18693,526299
18696,525665
18698,524063
18700,523819
18703,522609
18705,522082
18707,520282
18710,520177
18712,519252
18714,518967
18717,518574
18719,517602
18721,516779
18724,516739
18726,516371
18728,515463
18732,514995
18734,515124
18736,514805
18738,514035
18741,514407
18743,513852
18745,513800
18748,513116
18750,513608
18752,513174
18755,513577
18757,512779
18759,513398
18762,513041
18764,513616
18766,513216
18769,513534
18771,513329
18774,513944
18777,513595
18779,513385
18781,513809
18784,514530
18786,514195
18788,513992
18791,514780
18793,514561
18795,515012
18798,514909
18800,515746
18802,515653
18805,516523
18807,515970
18809,516819
18812,516696
18814,517584
18817,517130
18820,517923
18822,517831
18824,518737
18826,518319
18829,518208
18831,518912
18833,519867
18836,519451
18838,519348
18840,520213
18843,520095
18845,520617
18847,520560
18850,521365
18852,521280
18854,522203
18857,521643
18860,522574
18862,522409
18865,523404
18867,522950
18869,523757
18872,523677
18874,524645
18876,524202
18879,524173
18881,525003
18883,525990
18886,525515
18888,525461
18890,526407
18893,526281
18895,526823
18897,526700
18900,527532
18903,527450
18905,528358
18908,527687
18910,528494
18912,528282
18914,529203
18917,528567
18919,529077
18921,528803
18924,529608
18926,528879
18928,528678
18931,528900
18933,529566
18935,528804
18938,528532
18940,528941
18942,528550
18946,528349
18948,528062
18950,528335
18953,527903
18955,528539
18957,527432
18960,527499
18962,527124
18964,527766
18967,526829
18969,526614
18971,526233
18974,526859
18976,525972
18978,525885
18981,525422
18983,526096
18985,525292
18989,525193
18991,525002
18993,524792
18996,524684
18998,524710
19000,524472
19002,524304
19005,525110
19007,524408
19009,524160
19012,524064
19014,524924
19016,524171
19019,524054
19021,524053
19023,524932
19026,524249
19028,524504
19031,524182
19034,525133
19036,524515
19038,524907
19041,524548
19043,524625
19045,524937
19048,525377
19050,524933
19052,525100
19055,526005
19057,525983
19059,525549
19062,525748
19064,526798
19066,526199
19069,526295
19072,526560
19074,527552
19077,527022
19079,527567
19081,527122
19084,528430
19086,527913
19088,528503
19090,528041
19093,528234
19095,528884
19097,529458
19100,528998
19102,529255
19104,530398
19107,530469
19109,529945
19111,530263
19115,531372
19117,530829
19119,530963
19122,531218
19124,532361
19126,531804
19129,532449
19131,531993
19133,533310
19136,532739
19138,533429
19140,532909
19143,533199
19145,533772
19147,534398
19150,533831
19152,534102
19154,535207
19158,535250
19160,534766
19162,535005
19165,536087
19167,535510
19169,535581
19171,535832
19174,536914
19176,536343
19178,536929
19181,536391
19183,537646
19185,537077
19188,537659
19190,537095
19192,537409
19195,537813
19197,538358
19200,537789
19203,538211
19205,538974
19207,539039
19210,538481
19212,538912
19214,539537
19217,539035
19219,539049
19221,539604
19224,540149
19226,539682
19228,540225
19231,539708
19233,540653
19235,540224
19238,540888
19240,540372
19243,540950
19246,540930
19248,541536
19250,541028
19253,541738
19255,541976
19257,542332
19259,541770
19262,542592
19264,542717
19266,542493
19269,543102
19271,543389
19273,543385
19276,543158
19278,543842
19280,543311
19283,543949
19286,543669
19288,544210
19291,543487
19293,544202
19295,543212
19298,543526
19300,542485
19302,542736
19305,541926
19307,540790
19309,539283
19312,539142
19314,537819
19316,536506
19319,535993
19321,533784
19323,532273
19326,530771
19329,530210
19331,528409
19334,526687
19336,525426
19338,525044
19341,523436
19343,523344
19345,521054
19348,520867
19350,519493
19352,519640
19354,518599
19357,517754
19359,516558
19361,516899
19364,516043
19366,515386
19368,515565
19372,514978
19374,514298
19376,513724
19379,514018
19381,513076
19383,513052
19386,512603
19388,512917
19390,512191
19393,512908
19395,512070
19397,512533
19400,511865
19402,512656
19404,512248
19407,512612
19409,511996
19411,512813
19415,512425
19417,512307
19419,512918
19422,513318
19424,512944
19426,512938
19429,513628
19431,513143
19433,513827
19435,513886
19438,514497
19440,514082
19442,515101
19445,514983
19447,515649
19449,515206
19452,516277
19454,516068
19457,516828
19460,516460
19462,517566
19464,517410
19467,517609
19469,518097
19471,518848
19474,518690
19476,519010
19478,519320
19481,519035
19483,520049
19485,520382
19488,520648
19490,520396
19492,521553
19495,521816
19497,521912
19500,521778
19503,522951
19505,522818
19507,523365
19510,523244
19512,524441
19514,524286
19517,524872
19519,524883
19521,526013
19523,525847
19526,526396
19528,526266
19530,526194
19533,527277
19535,527893
19537,527630
19540,527578
19543,528788
19545,529135
19548,528776
19550,528608
19552,529720
19555,529447
19557,529995
19559,529389
19562,530397
19564,530063
19566,530526
19569,529854
19571,530534
19573,530077
19576,530465
19578,529659
19580,529284
19584,529571
19586,529901
19588,528993
19591,528564
19593,529364
19595,529042
19598,528112
19600,527615
19602,528433
19605,527770
19607,528043
19609,526603
19611,527397
19614,526734
19616,527032
19618,526064
19621,526372
19623,525666
19625,526032
19629,525089
19631,524627
19633,524903
19636,525235
19638,524335
19640,523993
19643,524900
19645,524661
19647,523829
19650,523535
19652,524447
19654,523990
19657,524427
19659,523386
19661,524340
19664,523867
19666,524422
19668,523659
19672,524460
19674,524089
19676,524618
19679,523906
19681,523795
19683,524448
19686,525037
19688,524340
19690,524270
19693,525335
19695,525578
19697,524951
19699,524939
19702,525946
19704,525657
19706,526344
19709,525772
19712,526707
19714,526463
19717,527153
19719,526562
19721,527518
19724,527348
19726,528092
19728,527457
19731,527722
19733,528366
19735,529105
19738,528505
19740,528815
19742,529385
19745,530110
19747,529531
19749,529957
19752,530383
19755,530389
19757,531194
19760,531040
19762,531434
19764,531468
19767,532207
19769,531697
19771,532416
19774,532490
19776,533334
19778,532748
19780,533233
19783,533468
19785,534317
19787,533737
19790,534235
19792,534427
19794,535244
19798,534675
19800,535245
19802,535294
19805,535373
19807,536167
19809,536110
19812,536109
19814,536223
19816,537037
19819,536436
19821,536945
19823,537056
19826,537893
19828,537200
19830,537828
19833,537787
19835,538620
19837,538041
19841,538621
19843,538444
19845,538590
19848,538757
19850,539427
19852,539201
19855,539338
19857,540159
19859,540141
19862,539997
19864,540156
19866,540943
19868,540301
19871,540802
19873,540958
19875,541802
19878,541180
19880,541813
19883,541761
19886,542559
19888,541970
19890,542618
19893,542441
19895,542533
19897,542666
19900,543238
19902,542959
19904,543006
19907,543654
19909,543272
19911,542717
19914,542509
19916,542854
19918,541739
19921,540892
19923,540297
19926,540198
19929,538619
19931,538304
19933,535995
19936,535519
19938,533587
19940,532958
19943,531471
19945,530396
19947,528053
19950,527468
19952,526067
19954,525150
19956,524737
19959,522692
19961,521555
19963,520920
19966,520670
19969,519205
19971,518105
19974,517707
19976,517518
19978,516301
19981,516357
19983,515350
19985,515209
19988,514156
19990,514347
19992,513715
19995,513714
19997,512671
19999,513020
20002,512464
20004,512614
20006,512490
20009,512209
20012,511762
20014,512077
20017,511876
20019,511315
20021,511538
20024,511984
20026,511789
20028,511349
20031,512006
20033,512337
20035,512093
20038,511739
20040,512465
20042,512245
20044,512945
20047,512458
20049,513283
20051,513117
20055,513912
20057,513652
20059,514346
20062,514188
20064,515003
20066,514739
20069,514593
20071,515366
20073,516245
20076,515930
20078,515831
20080,516683
20083,517508
20085,517200
20087,517141
20090,518069
20092,517949
20094,518845
20098,518415
20100,519338
20102,519254
20105,520255
20107,519879
20109,520686
20112,520658
20114,521543
20116,521234
20119,521195
20121,522075
20123,523041
20126,522703
20128,522646
20130,523577
20132,523531
20135,524248
20137,524179
20140,525075
20143,525051
20145,526080
20147,525680
20150,526621
20152,526552
20154,527544
20157,527136
20159,527933
20161,527761
20164,528703
20166,528217
20168,528112
20171,528692
20173,529549
20175,529015
20178,528846
20180,529544
20183,529254
20186,529392
20188,529102
20190,529676
20193,529242
20195,529949
20197,528845
20200,529369
20202,528899
20204,529521
20207,528742
20209,528684
20211,528225
20214,528846
20216,527954
20218,527578
20220,527433
20224,528029
20226,527154
20228,526812
20231,526993
20233,526524
20235,526314
20238,526103
20240,526179
20242,525778
20245,526408
20247,525475
20249,525483
20252,525117
20254,525847
20256,525120
20259,525054
20261,524750
20263,525532
20267,524788
20269,524842
20271,524587
20274,525399
20276,524734
20278,524878
20281,524713
20283,524604
20285,524848
20288,525083
20290,524885
20292,524861
20295,525813
20297,525532
20299,525286
20302,525309
20304,526294
20306,525806
20308,525863
20312,525975
20314,526990
20316,526469
20319,526900
20321,526723
20323,527738
20326,527266
20328,527737
20330,527368
20333,527540
20335,528097
20337,528621
20340,528240
20342,528453
20344,529572
20347,529684
20349,529236
20352,529511
20355,530588
20357,530173
20359,530261
20362,530572
20364,531678
20366,531198
20369,531780
20371,531602
20373,532780
20376,532365
20378,532903
20380,532459
20383,532704
20385,533426
20387,534008
20389,533498
20392,533789
20395,534878
20397,535028
20400,534572
20402,534828
20404,535851
20407,535415
20409,535495
20411,535731
20414,536823
20416,536371
20418,536960
20421,536476
20423,537779
20425,537237
20428,537819
20430,537312
20432,537528
20435,538065
20438,538648
20440,538123
20443,538345
20445,539373
20447,539473
20450,538864
20452,539126
20454,540086
20457,539612
20459,539590
20461,539828
20464,540770
20466,540260
20468,540754
20471,540243
20473,541407
20475,540867
20477,541406
20481,540870
20483,541225
20485,541501
20488,542028
20490,541462
20492,541910
20495,542555
20497,542682
20499,542092
20502,542596
20504,543118
20506,542662
20509,542763
20511,543353
20513,543738
20516,543465
20518,544046
20520,543521
20524,544457
20526,544142
20528,544788
20531,544229
20533,544893
20535,544856
20538,545463
20540,544842
20542,545550
20545,545637
20547,545870
20549,545156
20552,545765
20554,545591
20556,545048
20559,544355
20561,544709
20563,543988
20566,543119
20569,543032
20571,541599
20573,540204
20576,538872
20578,538346
20580,536483
20583,535980
20585,532958
20587,532221
20590,530327
20592,529894
20594,528412
20597,526506
20599,524793
20601,524511
20604,523215
20606,522121
20609,520360
20612,520322
20614,519257
20616,518345
20619,518315
20621,516977
20623,516303
20626,515568
20628,515657
20630,514495
20633,514870
20635,513505
20637,513709
20640,512686
20642,513194
20644,512520
20647,512424
20649,511584
20652,512165
20654,511590
20657,511271
20659,510989
20661,511727
20664,511187
20666,510963
20668,511503
20671,510760
20673,511168
20675,510974
20678,511602
20680,510995
20682,511931
20685,511456
20687,512102
20689,511555
20692,512534
20695,512275
20697,512960
20700,512401
20702,513428
20704,513181
20707,513190
20709,513924
20711,514455
20714,514193
20716,514287
20718,514967
20721,514532
20723,515383
20725,515475
20728,516043
20730,515660
20732,516734
20736,516638
20738,517221
20740,516821
20742,517863
20745,517600
20747,518266
20749,517848
20752,518960
20754,518706
20756,519050
20759,519256
20761,520047
20763,519777
20766,520114
20768,520227
20770,519991
20773,520835
20775,521251
20777,521317
20781,521131
20783,522238
20785,522533
20788,522436
20790,522240
20792,523385
20795,523239
20797,523606
20799,523447
20802,524580
20804,524347
20806,524906
20809,524655
20811,525625
20813,525368
20816,525927
20818,525596
20820,525359
20824,526150
20826,526706
20828,526161
20830,525956
20833,526915
20835,527016
20837,526373
20840,526099
20842,527039
20844,526571
20847,526322
20849,525965
20851,526849
20854,526320
20856,526713
20858,525930
20861,526412
20864,525847
20866,526195
20869,525337
20871,524956
20873,525219
20876,525617
20878,524750
20880,524373
20883,525168
20885,524979
20887,524109
20890,523716
20892,524560
20894,524055
20897,523574
20899,523215
20901,524125
20904,523637
20907,524051
20909,523130
20912,523726
20914,523280
20916,523797
20918,523020
20921,522713
20923,523222
20925,523728
20928,523001
20930,522774
20932,523754
20935,523887
20937,523107
20939,522987
20942,523953
20944,523554
20946,523485
20950,523375
20952,524418
20954,524081
20957,524750
20959,524092
20961,525008
20964,524675
20966,525371
20968,524706
20971,524719
20973,525392
20975,526097
20978,525460
20980,525481
20982,526491
20985,526881
20987,526284
20989,526354
20993,527268
20995,527106
20997,527785
20999,527341
21002,528201
21004,528000
21006,528777
21009,528234
21011,529089
21013,529012
21016,529836
21018,529186
21020,529518
21023,530034
21025,530806
21027,530234
21030,530588
21032,531047
21035,531909
21038,531302
21040,531665
21042,532034
21045,532008
21047,532840
21049,532719
21052,532960
21054,533010
21056,533848
21059,533211
21061,533847
21063,533862
21066,534668
21068,534061
21070,534569
21073,534787
21075,535586
21078,534943
21081,535448
21083,535462
21085,536454
21087,535784
21090,536312
21092,536274
21094,536359
21097,537158
21099,537079
21101,536881
21104,537012
21106,537849
21108,537182
21111,537567
21113,537686
21115,538521
21118,537836
21121,538365
21123,538273
21126,539048
21128,538348
21130,538919
21133,538704
21135,539577
21137,538911
21140,539473
21142,539275
21144,539358
21147,540174
21149,540086
21151,539831
21154,539931
21156,540740
21158,540068
21161,540508
21164,540606
21166,541485
21169,540803
21171,541446
21173,541374
21175,542243
21178,541557
21180,542234
21182,542089
21185,543072
21187,542408
21189,543062
21192,542812
21194,543008
21196,543813
21199,543744
21201,543448
21203,543568
21207,544318
21209,543586
21211,543646
21214,543588
21216,544098
21218,543002
21221,543190
21223,541916
21225,541963
21228,540478
21230,540239
21232,538963
21235,537678
21237,535836
21239,535286
21242,533700
21244,532667
21246,532018
21250,529490
21252,527966
21254,527139
21257,526429
21259,524758
21261,522983
21263,522473
21266,521849
21268,520366
21270,520171
21273,518803
21275,518300
21277,517094
21280,517063
21282,516213
21284,516089
21287,514684
21289,514878
21292,514060
21295,514162
21297,513758
21299,513199
21302,512564
21304,512813
21306,512425
21309,511761
21311,511641
21313,512036
21316,511706
21318,511194
21320,511718
21323,511836
21325,511548
21327,511068
21330,511680
21332,511386
21335,512014
21338,511380
21340,512138
21342,511907
21345,512613
21347,512290
21349,512743
21351,512596
21354,513434
21356,513141
21358,512929
21361,513589
21363,514475
21365,514142
21368,514003
21370,514823
21372,515609
21376,515321
21378,515174
21380,516060
21383,515908
21385,516840
21387,516390
21390,517306
21392,517166
21394,518113
21397,517752
21399,518493
21401,518404
21404,519358
21406,518961
21408,518871
21411,519593
21413,520561
21415,520147
21419,520119
21421,520914
21423,521724
21426,521358
21428,521226
21430,522087
21433,522001
21435,522954
21437,522504
21439,523398
21442,523283
21444,524222
21446,523857
21449,524638
21451,524546
21453,525557
21456,525181
21458,525103
21460,525806
21464,526790
21466,526401
21468,526255
21471,527066
21473,527837
21475,527358
21478,527205
21480,527935
21482,527682
21485,528562
21487,527805
21498,528014
21498,528292
21500,528292
21502,527932
21505,528632
21507,527858
21509,527655
21511,527896
21513,527427
21515,528084
21517,527337
21519,527211
21520,527167
21522,526757
21524,527369
21526,526579
21528,526396
21530,526279
21532,525910
21534,526509
21537,525610
21539,525486
21541,525081
21544,525735
21547,524971
21549,524645
21552,524338
21554,525014
21556,524260
21559,524246
21561,523737
21563,524490
21566,523802
21568,523871
21570,523514
21573,523413
21575,523550
21577,523675
21580,523330
21582,523246
21584,524127
21587,523737
21590,523296
21592,523328
21595,524263
21597,523668
21599,523514
21602,523568
21604,524555
21606,524009
21608,524422
21611,524069
21613,525105
21615,524573
21618,525032
21620,524558
21622,524736
21625,525258
21627,525795
21629,525293
21633,525505
21635,526596
21637,526639
21640,526115
21642,526330
21644,527448
21647,527001
21649,527062
21651,527334
21654,528461
21656,528002
21658,528574
21661,528353
21663,529492
21665,529043
21668,529692
21670,529193
21672,529458
21676,530222
21678,530766
21680,530342
21683,530588
21685,531670
21687,531814
21690,531399
21692,531606
21694,532696
21696,532358
21699,532398
21701,532699
21703,533764
21706,533367
21708,534006
21710,533743
21713,534844
21715,534348
21718,534982
21721,534470
21723,534752
21725,535310
21728,535869
21730,535372
21732,535603
21735,536626
21737,536753
21739,536202
21742,536554
21744,537469
21746,536986
21749,536965
21751,537303
21753,538106
21756,537675
21758,538155
21761,538038
21764,538755
21766,538267
21768,538830
21771,538287
21773,538740
21775,538869
21778,539386
21780,538842
21782,539299
21784,539799
21787,539989
21789,539431
21791,539866
21794,540252
21796,539963
21798,540006
21801,540516
21804,540752
21806,540476
21809,541064
21811,540513
21813,541312
21816,541110
21818,541683
21820,541096
21823,541799
21825,541727
21827,542362
21830,541803
21832,542582
21834,542556
21837,543088
21839,542513
21841,543321
21844,543233
21847,543050
21849,543112
21852,543858
21854,543623
21856,543406
21859,543943
21861,543156
21863,543261
21866,542718
21868,542934
21870,541836
21872,542101
21875,540279
21877,540068
21879,538545
21882,538370
21884,537017
21886,535218
21890,533433
21892,533071
21894,531597
21897,530260
21899,528020
21901,527744
21904,526290
21906,525208
21908,524836
21911,523265
21913,522022
21915,521031
21918,520811
21920,519494
21922,519689
21925,517922
21927,517906
21929,516732
21933,517029
21935,516221
21937,515805
21940,514717
21942,515186
21944,514485
21947,514042
21949,513373
21951,513978
21954,513357
21956,513055
21958,513427
21960,512628
21963,512782
21965,512516
21967,513003
21970,512297
21972,513122
21975,512575
21978,513130
21980,512542
21982,513390
21985,512980
21987,513599
21989,512997
21992,513985
21994,513664
21996,513736
21999,513888
22001,514851
22003,514619
22006,514732
22008,515254
22010,514839
22013,515655
22016,515928
22018,516402
22021,516034
22023,517102
22025,517211
22028,517601
22030,517275
22032,518396
22035,518172
22037,518856
22039,518501
22042,519644
22044,519490
22046,519913
22048,519809
22051,520884
22053,520728
22055,521247
22059,521251
22061,521031
22063,522021
22066,522557
22068,522456
22070,522295
22073,523400
22075,523823
22077,523667
22080,523569
22082,524752
22084,524577
22087,525027
22089,524900
22091,526085
22094,525942
22096,526636
22098,526358
22102,527504
22104,527336
22106,528009
22109,527632
22111,527636
22113,528471
22116,529151
22118,528635
22120,528587
22123,529623
22125,529959
22127,529402
22130,529199
22132,530232
22134,529889
22136,529727
22139,529454
22141,530392
22144,529907
22147,530334
22149,529613
22151,530055
22154,529586
22156,530007
22158,529144
22161,528725
22163,528960
22165,529395
22168,528416
22170,528031
22172,528844
22175,528678
22177,527772
22179,527311
22182,528080
22184,527523
22187,527007
22190,526592
22192,527405
22194,526799
22197,527253
22199,526332
22201,526787
22204,526219
22206,526713
22208,525856
22211,525543
22213,525937
22215,526475
22217,525615
22220,525334
22222,526239
22224,526284
22227,525514
22230,525299
22232,526243
22235,525855
22237,525658
22239,525543
22242,526535
22244,526103
22246,526780
22249,526023
22251,526910
22253,526555
22256,527268
22258,526571
22260,526569
22263,527211
22265,527915
22267,527267
22270,527312
22273,528112
22275,528651
22278,528101
22280,528187
22282,528886
22285,528730
22287,528911
22289,529181
22292,529783
22294,529659
22296,530513
22299,529896
22301,530767
22303,530723
22305,531599
22308,531009
22310,531303
22312,531691
22316,532628
22318,532008
22320,532449
22323,532796
22325,533716
22327,533138
22330,533601
22332,533779
22334,533837
22337,534154
22339,534659
22341,534831
22344,534941
22346,535854
22348,535225
22351,535850
22353,535951
22355,536911
22359,536247
22361,536830
22363,536891
22366,537831
22368,537176
22370,537755
22373,537711
22375,538806
22377,538159
22380,538744
22382,538664
22384,538761
22387,539638
22389,539647
22391,539408
22393,539580
22396,540480
22398,539840
22401,540236
22404,540398
22406,541299
22408,540586
22411,541203
22413,541114
22415,541987
22418,541244
22420,541923
22422,541608
22425,542615
22427,541909
22429,542554
22432,542282
22434,542390
22436,543230
22439,543101
22441,542826
22444,542883
22447,543769
22449,543026
22451,543308
22454,543372
22456,544189
22458,543503
22461,544129
22463,543859
22465,544739
22468,544015
22470,544614
22472,544266
22475,545172
22477,544411
22479,545001
22481,544666
22484,544870
22487,545694
22489,545566
22492,545262
22494,545393
22496,546274
22499,545514
22501,545818
22503,546053
22506,546797
22508,546121
22510,546763
22513,546740
22515,547512
22517,546807
22520,547475
22522,547225
22524,548115
22528,547404
22530,548019
22532,547697
22535,547960
22537,548343
22539,548011
22542,547430
22544,547558
22546,547540
22549,546455
22551,545575
22553,545347
22556,544739
22558,543216
22560,542896
22563,540762
22565,539594
22567,537841
22569,537178
22573,535479
22575,533452
22577,531677
22580,531124
22582,529596
22584,529043
22587,527814
22589,525961
22591,524657
22594,524381
22596,523303
22598,522055
22601,520841
22603,520804
22605,519905
22608,518922
22610,519031
22612,518321
22616,517455
22618,516638
22620,516888
22623,516099
22625,515699
22627,514998
22630,515368
22632,514748
22634,515199
22637,514510
22639,514429
22641,513950
22644,514574
22646,513941
22648,513516
22651,513640
22653,514349
22656,513813
22658,513420
22661,514138
22663,514538
22665,514015
22668,513697
22670,514500
22672,514165
22675,515037
22677,514338
22679,515087
22682,514881
22684,515761
22686,515414
22689,515973
22691,515804
22693,516704
22696,516334
22699,516151
22701,516789
22704,517742
22706,517411
22708,517240
22711,518062
22713,518849
22715,518482
22718,518262
22720,519115
22722,518935
22725,519870
22727,519367
22729,520155
22732,519973
22734,520927
22736,520489
22739,521135
22742,520954
22744,521916
22746,521470
22749,521314
22751,521859
22753,522817
22756,522431
22758,522217
22760,523006
22763,523735
22765,523334
22767,523285
22770,523960
22772,523798
22774,524838
22777,524430
22779,525127
22781,524988
22785,525977
22787,525637
22789,526174
22792,526080
22794,527074
22796,526657
22799,526787
22801,527095
22803,528060
22806,527596
22808,527726
22810,527928
22813,528739
22815,528267
22817,528348
22820,528384
22822,528211
22824,529121
22827,528682
22830,528518
22832,528349
22834,529210
22837,528547
22839,528323
22841,528165
22844,528993
22846,528290
22848,528432
22851,527805
22853,528570
22855,527865
22858,527979
22860,527446
22862,528009
22865,527282
22867,527442
22870,526855
22873,526655
22875,527448
22877,526941
22880,526275
22882,526127
22884,526919
22887,526245
22889,525784
22891,525739
22894,526556
22896,525833
22898,526134
22901,525445
22903,526262
22905,525692
22908,525993
22910,525265
22913,526208
22916,525674
22918,526056
22920,525400
22922,525434
22925,526372
22927,526176
22929,525585
22932,525722
22934,526689
22936,526151
22939,525965
22941,526114
22943,527087
22946,526651
22948,527112
22950,526689
22953,527723
22956,527286
22958,527802
22961,527285
22963,527491
22965,528113
22968,528597
22970,528080
22972,528321
22975,529370
22977,529510
22979,528967
22982,529187
22984,530302
22986,529883
22989,529956
22991,530239
22993,531333
22996,530920
22999,531490
23001,531229
23003,532301
23006,531955
23008,532483
23010,531938
23013,532279
23015,532914
23017,533572
23020,533059
23022,533390
23024,534354
23027,534649
23029,534128
23031,534502
23034,535450
23036,535083
23038,535122
23042,535596
23044,536386
23046,536052
23049,536683
23051,536676
23053,537319
23056,537001
23058,537608
23060,537078
23063,537670
23065,537859
23067,538477
23070,537922
23072,538551
23074,538892
23077,539319
23079,538758
23081,539393
23085,539710
23087,539539
23089,539604
23091,540188
23094,540344
23096,540199
23098,540854
23101,540944
23103,541001
23105,540825
23108,541475
23110,540828
23112,541590
23115,541463
23117,542077
23119,541414
23122,542230
23124,542063
23127,542578
23130,541977
23132,542800
23134,542576
23137,542527
23139,542487
23141,543323
23144,543060
23146,542969
23148,543577
23151,543808
23153,543546
23155,543396
23158,544030
23160,543478
23162,544327
23165,543989
23168,544642
23170,544059
23173,544986
23175,544631
23177,545260
23179,544607
23182,545624
23184,545280
23186,545254
23189,545422
23191,546322
23193,546061
23196,546022
23198,546737
23200,547144
23203,546854
23205,546782
23207,547465
23211,546822
23213,547707
23215,547164
23218,547735
23220,546955
23222,547684
23225,547116
23227,546882
23229,545801
23232,546165
23234,545086
23236,544333
23239,542530
23241,542409
23243,540874
23246,539686
23248,539029
23250,537169
23254,535152
23256,533842
23258,533212
23261,531369
23263,531047
23265,528417
23267,527903
23270,526226
23272,526049
23274,524798
23277,523573
23279,522166
23281,522325
23284,521251
23286,520567
23288,519204
23291,519510
23293,518581
23296,518271
23299,518015
23301,517019
23303,516709
23306,516606
23308,516367
23310,515570
23313,516170
23315,515438
23317,515226
23320,514541
23322,515263
23324,514747
23327,514679
23329,514106
23331,514944
23334,514505
23336,514866
23339,514183
23342,515136
23344,514755
23346,515186
23349,514938
23351,514629
23353,515307
23355,515850
23358,515594
23360,515321
23362,516399
23365,516776
23367,516431
23369,516331
23372,517403
23374,517188
23376,517502
23379,517398
23382,518510
23384,518321
23387,519050
23389,518567
23391,519738
23394,519520
23396,520292
23398,519810
23401,519815
23403,520705
23405,521517
23408,521023
23410,520947
23412,522078
23415,522670
23417,522148
23419,522092
23422,523270
23425,523028
23427,523330
23430,523304
23432,524424
23434,524195
23436,525000
23439,524355
23441,525568
23443,525361
23446,526208
23448,525632
23450,525581
23453,526605
23455,527512
23457,526913
23460,526908
23462,528027
23464,528769
23468,528179
23470,528156
23472,529319
23475,529123
23477,529352
23479,529271
23482,530429
23484,530159
23486,530955
23489,530176
23491,531214
23493,530914
23496,531626
23498,530876
23500,530680
23503,531231
23505,531827
23507,531078
23511,530707
23513,531610
23515,531737
23518,530771
23520,530462
23522,531219
23524,530598
23527,530135
23529,529853
23531,530534
23534,529959
23536,530394
23538,529460
23541,529720
23543,529082
23545,529528
23548,528551
23550,528291
23553,528198
23556,528637
23558,527675
23560,527569
23563,527972
23565,527984
23567,527013
23570,526955
23572,527253
23574,526868
23577,526511
23579,526571
23581,526819
23584,526491
23586,527193
23588,526282
23591,526587
23593,526416
23596,527104
23599,526283
23601,526480
23603,526505
23606,527216
23608,526443
23610,526790
23612,526896
23615,527555
23617,526824
23619,527305
23622,527273
23624,527285
23626,527412
23629,527859
23631,527821
23633,527897
23636,528813
23639,528138
23641,528598
23644,528751
23646,529715
23648,529039
23651,529616
23653,529646
23655,530609
23658,529968
23660,530575
23662,530473
23665,531566
23667,530961
23669,531628
23672,531445
23674,531604
23676,531965
23680,532668
23682,532557
23684,532769
23687,533746
23689,533069
23691,533624
23694,533820
23696,534842
23698,534202
23700,534905
23703,534916
23705,535913
23707,535348
23710,536006
23712,535874
23714,537011
23717,536380
23719,537111
23721,536942
23725,537097
23727,537474
23729,538115
23732,537888
23734,538078
23736,539044
23739,538395
23741,538821
23743,538990
23746,539997
23748,539312
23750,539933
23753,539904
23755,540815
23757,540147
23760,540827
23762,540600
23764,541671
23768,540922
23770,541642
23772,541354
23775,541465
23777,542351
23779,542308
23782,542024
23784,542141
23786,543010
23788,542259
23791,542581
23793,542824
23795,543621
23798,542875
23800,543518
23802,543427
23805,544004
23808,543346
23810,543928
23813,543613
23815,544396
23817,543789
23820,544399
23822,544059
23824,544476
23827,544795
23829,544859
23831,544510
23834,545022
23836,545268
23838,544677
23841,545155
23843,545578
23845,545756
23848,545334
23851,546006
23853,546368
23856,546436
23858,545968
23860,546717
23863,546444
23865,547173
23867,546717
23870,547453
23872,547181
23874,547899
23876,547783
23879,548107
23881,547799
23883,548497
23886,548216
23888,547766
23890,547867
23894,548405
23896,547836
23898,547153
23901,547518
23903,546812
23905,545742
23908,544560
23910,544452
23912,543142
23915,541408
23917,539878
23919,539404
23922,537742
23924,537216
23926,535555
23929,533344
23931,531822
23933,531382
23937,529795
23939,528384
23941,526669
23944,526480
23946,525055
23948,523887
23951,523797
23953,522683
23955,521546
23958,520565
23960,520649
23962,519733
23964,518979
23967,518085
23969,518339
23971,517590
23974,517934
23976,517096
23979,516786
23982,516120
23984,516628
23986,515892
23989,515336
23991,515242
23993,515861
23996,515230
23998,514782
24000,515366
24003,515624
24005,515114
24007,514739
24010,515366
24012,515071
24014,515347
24017,515066
24019,515817
24022,515522
24025,516358
24027,515994
24029,516551
24032,516312
24034,517305
24036,516888
24039,516773
24041,517346
24043,518329
24045,517995
24048,517941
24050,518703
24052,519533
24055,519263
24057,519335
24059,519924
24062,519847
24065,520892
24067,520666
24070,521168
24072,521160
24074,522198
24077,521877
24079,522440
24081,522422
24084,523502
24086,523201
24088,523446
24091,523765
24093,524871
24095,524523
24098,524851
24100,525017
24102,526167
24105,525923
24108,526219
24110,526304
24113,526432
24115,527535
24117,527729
24120,527645
24122,527834
24124,528975
24127,528703
24129,529126
24131,529269
24133,530430
24136,530194
24138,530595
24140,530605
24143,531735
24145,531407
24147,531812
24151,531505
24153,532734
24155,532344
24158,532791
24160,532328
24162,532464
24165,533382
24167,533362
24169,532778
24172,532782
24174,533693
24176,533130
24179,532742
24181,532668
24183,533446
24186,532765
24188,532983
24190,532070
24194,532863
24196,532184
24198,532327
24201,531524
24203,532109
24205,531348
24208,531462
24210,530598
24212,530471
24215,531194
24217,530632
24219,529784
24221,529596
24224,530317
24226,529656
24228,529031
24231,528893
24233,529643
24236,528980
24239,529166
24241,528309
24243,529077
24246,528465
24248,528717
24250,528001
24253,528754
24255,528189
24257,528534
24260,527819
24262,527891
24264,528745
24267,528548
24269,527876
24271,527972
24274,528867
24276,528361
24279,528189
24282,528360
24284,529273
24286,528833
24289,529268
24291,528881
24293,529742
24296,529361
24298,529934
24300,529282
24303,530494
24305,530161
24307,530708
24309,530124
24312,530473
24314,531254
24316,531539
24320,531026
24322,531531
24324,532247
24327,531999
24329,532090
24331,532630
24334,533242
24336,533007
24338,533606
24341,533738
24343,534269
24345,534096
24348,534743
24350,534222
24352,534918
24355,535199
24357,535865
24359,535426
24363,536094
24365,536395
24367,537010
24370,536545
24372,537281
24374,537489
24377,537477
24379,537701
24381,538486
24384,538588
24386,538574
24388,539295
24391,539601
24393,539637
24395,539692
24397,540325
24400,539834
24402,540733
24404,540711
24408,541322
24410,540842
24412,541754
24415,541640
24417,542333
24419,541807
24422,542665
24424,542503
24426,542561
24429,542706
24431,543635
24433,543363
24436,543418
24438,544063
24440,544425
24443,544237
24445,544248
24448,544909
24451,544315
24453,545177
24455,544993
24458,545582
24460,545010
24462,545915
24465,545641
24467,546224
24469,545658
24472,546576
24474,546278
24476,546247
24479,546339
24481,547201
24483,546826
24485,546847
24488,547434
24491,547699
24493,547362
24496,547358
24498,547958
24500,547375
24503,548278
24505,547854
24507,548517
24510,547918
24512,548834
24514,548511
24517,549127
24519,548505
24521,549431
24524,549118
24526,549134
24528,549153
24531,550092
24534,549785
24536,549818
24539,550430
24541,550838
24543,550478
24546,550568
24548,551178
24550,550547
24553,551489
24555,551239
24557,551736
24560,551112
24562,551944
24564,551453
24567,551639
24569,550855
24571,551468
24573,550704
24577,550472
24579,548961
24581,549159
24584,547895
24586,547235
24588,546270
24591,544310
24593,542634
24595,541633
24598,540155
24600,538289
24602,537816
24605,535045
24607,533536
24609,531815
24612,531507
24614,529945
24616,527936
24620,526451
24622,526413
24624,525132
24627,524696
24629,522424
24631,522630
24634,521530
24636,521415
24638,520343
24641,519446
24643,518967
24645,519045
24648,518099
24650,517369
24652,517863
24654,517359
24657,516389
24659,515901
24662,516516
24665,515877
24667,515418
24669,514965
24672,515742
24674,515216
24676,515720
24679,514562
24681,515486
24683,515026
24686,515656
24688,514936
24690,514668
24693,515317
24695,515955
24697,515266
24700,515111
24702,516146
24705,516572
24708,515952
24710,515808
24712,516932
24715,516713
24717,516843
24719,516813
24722,517920
24724,517665
24726,518540
24729,517973
24731,519098
24733,518916
24736,519795
24738,519205
24740,519200
24742,520116
24745,520993
24748,520412
24750,520381
24753,521572
24755,522244
24757,521662
24760,521544
24762,522728
24764,522532
24767,522800
24769,522764
24771,523899
24774,523706
24776,524624
24778,523968
24781,525111
24783,524840
24785,525750
24788,525134
24791,525129
24793,526059
24796,526945
24798,526375
24800,526436
24803,527544
24805,528326
24807,527739
24810,527800
24812,528893
24814,528737
24817,529033
24819,529168
24821,530132
24824,529912
24826,530879
24828,530365
24830,531167
24834,531024
24836,531882
24838,531165
24841,531378
24843,531763
24845,532603
24848,531789
24850,531965
24852,532394
24855,532889
24857,532040
24859,532169
24862,532369
24864,532095
24866,531930
24869,531983
24871,531995
24873,531673
24877,532338
24879,531503
24881,531419
24884,531121
24886,531794
24888,530738
24891,530884
24893,530406
24895,531040
24898,530021
24900,530181
24902,529904
24905,530236
24907,529289
24909,529464
24912,529168
24914,529006
24916,528725
24919,528967
24922,528664
24924,528501
24926,529174
24929,528259
24931,528292
24933,528153
24936,528895
24938,528085
24940,528449
24943,528140
24945,528883
24947,528130
24950,528554
24952,528278
24954,529166
24957,528345
24960,528901
24962,528565
24965,528659
24967,528812
24969,529390
24972,529026
24974,529201
24976,530133
24979,529398
24981,529742
24983,529868
24986,530804
24988,530148
24990,530767
24993,530689
24995,531696
24997,531032
25000,531743
25003,531476
